EpisodeIndex,DQNEpisodeReward,DQNAverageReward,DQNEpisodeQ0,DDQNEpisodeReward,DDQNAverageReward,DDQNEpisodeQ0
1,-10.8152515602296,-10.8152513504028,0.452595412731171,-17.2792794828939,-17.2792797088623,0.452595412731171
2,-10.8590539052235,-10.8371524810791,1.20972549915314,-16.191000844585,-16.7351398468018,0.485241085290909
3,-19.2449485034403,-13.6397514343262,0.695751965045929,-16.3250980243935,-16.5984592437744,-0.100436702370644
4,-11.9862256426972,-13.2263698577881,0.88044548034668,-21.9977859724184,-17.9482917785645,0.930443942546844
5,-18.4952590579396,-14.2801485061646,0.815815269947052,-21.9977859724184,-18.7581901550293,0.985690891742706
6,-17.6712436986677,-14.8453302383423,0.439267247915268,-22.9243593989918,-19.4525508880615,0.777709901332855
7,-13.8877153188193,-14.7085275650024,1.02860653400421,-11.7395671706711,-18.3506965637207,1.08857345581055
8,-18.1279033718006,-15.1359491348267,0.419126003980637,-17.5002347987645,-18.2443885803223,1.14632213115692
9,-11.988929862092,-14.7862815856934,1.16315925121307,-13.9862256426972,-17.7712593078613,0.432730108499527
10,-17.9955719448368,-15.1072082519531,1.03616011142731,-18.8721457960431,-17.88134765625,0.778735160827637
11,-13.9884396702788,-15.0055046081543,1.01403820514679,-13.988929862092,-17.5274906158447,0.939795792102814
12,-17.7099702951054,-15.2308759689331,0.944802403450012,-8.9285269032623,-16.8109111785889,0.678503572940826
13,-11.9753002352985,-14.9804468154907,1.02051103115082,-17.9933579172552,-16.9018688201904,0.607917308807373
14,-13.1001290514503,-14.8461380004883,0.640746057033539,-17.4041563439373,-16.9377460479736,0.141624540090561
15,-13.9741635332552,-14.7880067825317,0.33851021528244,-15.407339903933,-16.8357200622559,0.792306125164032
16,-17.9933579172552,-14.9883413314819,0.653096675872803,-14.9414495232942,-16.7173271179199,0.49342942237854
17,-13.7173555651501,-14.9135770797729,0.747798562049866,-17.9933579172552,-16.7923889160156,0.749385893344879
18,-20.8308209869824,-15.2423133850098,0.994450688362122,-16.3037027448414,-16.7652378082275,0.413779377937317
19,-17.9933579172552,-15.3871040344238,1.22081100940704,-15.9911438896736,-16.7244968414307,1.09485900402069
20,-17.9955719448368,-15.5175294876099,1.08373653888702,-13.988929862092,-16.587718963623,0.982709288597107
21,-18.1066830559479,-15.6408224105835,0.56611031293869,-17.7291804110195,-16.6420745849609,0.892483294010162
22,-16.0666717002464,-15.6601781845093,-0.619350075721741,-17.7052493641916,-16.6904010772705,0.527890563011169
23,-17.0606046187324,-15.7210664749146,0.686109185218811,-10.3744158566649,-16.41579246521,1.04506254196167
24,-17.0959665519992,-15.7783536911011,-0.145464152097702,-20.0815934502131,-16.5685348510742,0.659334242343903
25,-15.0919503258503,-15.7508983612061,0.299888104200363,-20.3866333973508,-16.7212600708008,0.3706876039505
26,-11.9780044546933,-15.6057872772217,1.07073855400085,-13.9775142628801,-16.6157302856445,0.40948098897934
27,-21.9977859724184,-15.8425273895264,1.03487968444824,-15.9884396702788,-16.5924968719482,1.04045271873474
28,-16.5068919211697,-15.8662548065186,0.965020537376404,-19.9955719448368,-16.7140350341797,0.777565777301788
29,-15.9911438896736,-15.8705615997314,0.949023544788361,-20.7935171503162,-16.8547077178955,0.520039498806
30,-14.4797312406989,-15.824200630188,1.01955449581146,-15.9957797828246,-16.8260765075684,0.625950217247009
31,-12.292494905604,-15.7102737426758,0.690629899501801,-21.9977859724184,-16.9929065704346,-0.116855353116989
32,-13.4996897486619,-15.6411933898926,0.659254729747772,-18.9845425330721,-17.0551452636719,0.359322845935822
33,-16.4684166169463,-15.666259765625,0.75215470790863,-17.2184166169463,-17.0600910186768,0.759726166725159
34,-7.15128113225172,-15.4158201217651,0.922049939632416,-16.60404711548,-17.0466766357422,0.395636737346649
35,-14.3653472959701,-15.3858070373535,-0.00869365036487579,-16.1756825430402,-17.0217933654785,1.03160917758942
36,-24,-15.6250896453857,-0.151525363326073,-14.1411250220692,-16.9417743682861,0.501533627510071
37,-18.5778877404136,-15.7048950195312,-0.544836819171906,-18.5678260023616,-16.9857234954834,0.337441474199295
38,-9.98179758753398,-15.5542879104614,1.18612897396088,-17.9933579172552,-17.0122394561768,0.995731115341187
39,-13.527737850857,-15.5023241043091,1.07692325115204,-14.883564045739,-16.9576568603516,0.831851124763489
40,-13.6156856141136,-15.4551572799683,1.19039881229401,-16.9380037930552,-16.9571647644043,1.34571421146393
41,-17.8681865057218,-15.514012336731,1.84111070632935,-20.9670909321786,-17.0549697875977,3.87991237640381
42,-12.7033951842467,-15.4470930099487,0.89689713716507,-17.7969503085767,-17.0726356506348,1.21327805519104
43,-22.1730847771993,-15.6035118103027,0.0498552694916725,-13.2934887428769,-16.984748840332,0.211759716272354
44,-15.7799999617633,-15.6075229644775,0.301911324262619,-19.4486108355431,-17.0407466888428,0.363016098737717
45,-17.7954917157606,-15.6561441421509,0.115009747445583,-13.1492691209581,-16.9542675018311,0.322426319122314
46,-14.9505113569829,-15.6408052444458,0.852596342563629,-19.0826436315409,-17.0005359649658,0.340099781751633
47,-16.5340886749497,-15.6598110198975,0.740363478660583,-21.6431744739082,-17.0993156433105,0.185789972543716
48,-14.5304824127597,-15.6362829208374,0.83497679233551,-14.1060792297359,-17.0369567871094,0.522643983364105
49,-11.9867158345104,-15.5618009567261,1.01366198062897,-15.9884396702788,-17.0155601501465,0.016396613791585
50,-11.9835214233024,-15.4902353286743,1.02310514450073,-17.9933579172552,-17.0351142883301,0.319166481494904
51,-12.7493825011771,-15.4364938735962,1.09629988670349,-16.3271438896736,-17.0212326049805,0.586513161659241
52,-17.9933579172552,-15.4856634140015,1.06371331214905,-15.9911438896736,-17.0014228820801,0.686764359474182
53,-17.9933579172552,-15.53297996521,1.05637335777283,-18.0826436315409,-17.0218238830566,0.684236586093903
54,-21.0309417197564,-15.6347923278809,0.869770348072052,-14.5704332394106,-16.9764270782471,0.0773308277130127
55,-12.7948224259264,-15.583158493042,-0.000391378998756409,-18.5338984577957,-17.0047454833984,0.520325481891632
56,-22.1886256670749,-15.7011127471924,0.629039287567139,-17.222376672258,-17.0086326599121,0.426860898733139
57,-15.3070812576704,-15.6941995620728,0.526817858219147,-14.4514662844084,-16.9637699127197,0.375039547681808
58,-9.97308620771686,-15.5955610275269,1.06249964237213,-7.97308620771686,-16.8087577819824,0.447053819894791
59,-11.988929862092,-15.5344314575195,1.18028962612152,-17.9933579172552,-16.82883644104,0.46093225479126
60,-18.1593330209896,-15.5781803131104,0.168960496783257,-13.733191176685,-16.7772426605225,0.843247830867767
61,-21.450700149965,-15.6744508743286,0.44354909658432,-20.6686488679137,-16.8410339355469,-0.0970139503479004
62,-19.8068699140766,-15.7411022186279,1.0257660150528,-20.6009773502422,-16.9016799926758,0.66063129901886
63,-22.4855908504672,-15.8481578826904,1.49588632583618,-18.5055530392064,-16.9271373748779,0.429794818162918
64,-18.5847557667176,-15.8909168243408,-0.0732047706842422,-15.0722471480735,-16.8981552124023,0.149449855089188
65,-11.7692645516659,-15.827507019043,0.688881158828735,-20.5942980594865,-16.9550170898438,-0.0269718300551176
66,-17.8118224074057,-15.8575716018677,-0.160976782441139,-16.4302743244562,-16.9470672607422,-0.0313425585627556
67,-10.3749125841757,-15.7757406234741,0.0733566582202911,-16.8901337886635,-16.9462184906006,0.041860643774271
68,-19.0605848080115,-15.8240480422974,0.773431360721588,-17.7513400728817,-16.9580574035645,0.0263793934136629
69,-9.98130739572077,-15.7393712997437,0.973208844661713,-18.3804546914487,-16.9786739349365,-0.126996740698814
70,-18.1649102585141,-15.774022102356,0.587890565395355,-17.0789374078353,-16.9801063537598,-0.186117678880692
71,-19.9955719448368,-15.8334789276123,-0.0567974895238876,-18.8781315798066,-17.0068378448486,-0.25381076335907
72,-11.9840116151156,-15.7800140380859,0.820554971694946,-15.9884396702788,-16.9926929473877,-0.445817053318024
73,-18.7330839446525,-15.8204660415649,0.713412463665009,-18.1596034695499,-17.0086784362793,-0.335345685482025
74,-16.895689344219,-15.834997177124,0.921256422996521,-20.727390126655,-17.058931350708,-0.0998609587550163
75,-20.507767066788,-15.8973016738892,0.894722998142242,-17.9933579172552,-17.0713901519775,-0.0556576550006866
76,-22.4564325889597,-15.9836053848267,-0.0865970551967621,-16.4546050838126,-17.0632743835449,-0.210377469658852
77,-18.9246293949184,-16.0217990875244,-0.229585409164429,-12.2279978694111,-17.0004787445068,-0.242080643773079
78,-19.992867725442,-16.0727119445801,0.7186439037323,-17.4582491528315,-17.00634765625,-0.103982165455818
79,-19.7773085345391,-16.1196060180664,0.941450417041779,-19.1785431024404,-17.0338459014893,-0.0809128433465958
80,-15.5345112366124,-16.1122932434082,1.26772964000702,-16.7311236018809,-17.0300617218018,-0.343136936426163
81,-17.8779133544893,-16.1340885162354,1.21604752540588,-15.985735450884,-17.0171680450439,-0.416889131069183
82,-12.9692761389129,-16.095495223999,0.273938924074173,-16.9665573123182,-17.0165500640869,-0.311838328838348
83,-15.9884396702788,-16.0942039489746,1.01384806632996,-11.988929862092,-16.9559764862061,-0.0741898864507675
84,-13.5137917500347,-16.0634860992432,1.03988909721375,-16.8923542610261,-16.9552192687988,0.290059208869934
85,-13.091538496836,-16.0285205841064,0.297425121068954,-18.2998095301584,-16.9710369110107,0.31097736954689
86,-24,-16.1212139129639,0.440691322088242,-13.9338856458311,-16.9357223510742,0.0392649807035923
87,-19.832320364527,-16.1638679504395,0.895796298980713,-10.5407682294465,-16.8622169494629,-0.0455258339643478
88,-17.9906536978604,-16.1846294403076,0.704435884952545,-18.9933579172552,-16.8864326477051,-0.0458655655384064
89,-14.786315483007,-16.1689186096191,0.591322541236877,-13.9862256426972,-16.8538475036621,-0.322433710098267
90,-11.9840116151156,-16.1224174499512,0.596541047096252,-17.9933579172552,-16.8665084838867,-0.337913066148758
91,-17.1952255223267,-16.1342067718506,0.946375846862793,-6.67560670453086,-16.7545204162598,-0.00860148016363382
92,-20.4831164288226,-16.1814765930176,0.853364586830139,-16.7313574128053,-16.7542705535889,0.169193550944328
93,-9.61868130431328,-16.1109085083008,0.526210248470306,-21.9977859724184,-16.8106517791748,0.0534788891673088
94,-15.578116017897,-16.1052417755127,0.159394130110741,-16.923576322106,-16.8118534088135,-0.138108029961586
95,-16.4021027937832,-16.1083660125732,0.54258531332016,-16.7205959444681,-16.8108921051025,-0.225160554051399
96,-16.7235528316373,-16.1147747039795,0.774160802364349,-10.9794033201847,-16.7501468658447,-0.183075472712517
97,-16.8976859457484,-16.1228446960449,0.705463647842407,-15.2715177214493,-16.7349033355713,-0.0588047169148922
98,-17.5683497720265,-16.1375961303711,0.639988303184509,-18.2029167407846,-16.7498836517334,0.0281928982585669
99,-12.6169230075206,-16.1020336151123,0.959021210670471,-19.9977859724184,-16.7826900482178,0.0180465448647738
100,-9.28815596903687,-16.0338954925537,0.968936502933502,-16.7630061442672,-16.7824935913086,-0.00282552349381149
101,-16.0062256426972,-16.0336208343506,1.01697731018066,-14.8982973294013,-16.7638378143311,0.017974216490984
102,-17.701227923287,-16.0499706268311,0.579102873802185,-20.7896895918956,-16.8033065795898,-0.300381720066071
103,-19.9955719448368,-16.0882778167725,0.7077996134758,-5.97958355995238,-16.6982231140137,-0.545825064182281
104,-19.0656012632628,-16.1169052124023,0.483082681894302,-14.4364830980053,-16.6764755249023,-0.24161833524704
105,-21.9977859724184,-16.1729145050049,1.01938784122467,-21.9977859724184,-16.7271537780762,0.0946811959147453
106,-16.205480836994,-16.1732196807861,1.04275095462799,-12.6482383495518,-16.6886730194092,0.133739486336708
107,-15.9911438896736,-16.1715183258057,0.958523988723755,-13.988929862092,-16.6634426116943,0.0878179371356964
108,-17.4170110988502,-16.1830520629883,0.91153609752655,-15.2032155763777,-16.6499214172363,0.181089028716087
109,-13.6834667370375,-16.160120010376,0.783934950828552,-15.5060812383651,-16.6394271850586,0.358033955097198
110,-14.2525920231309,-16.1427783966064,0.730312049388885,-19.199583598189,-16.6627025604248,0.204704612493515
111,-16.1561486149296,-16.1428985595703,0.487346649169922,-12.5421511499993,-16.6255798339844,-0.00811404455453157
112,-15.9884396702788,-16.1415195465088,0.952230274677277,-17.9933579172552,-16.6377906799316,0.00343898730352521
113,-13.3331387971605,-16.1166667938232,0.613022804260254,-13.637167744848,-16.6112365722656,0.122397668659687
114,-16.8885797871095,-16.1234378814697,0.210595220327377,-13.4043843187977,-16.5831089019775,-0.00217966921627522
115,-14.5003802437714,-16.1093235015869,0.36709064245224,-12.5951888298296,-16.5484294891357,0.295625984668732
116,-19.2080450022082,-16.1360359191895,0.474197685718536,-16.8869903949165,-16.5513477325439,1.46134531497955
117,-13.9884396702788,-16.1176815032959,0.893805086612701,-9.98179758753398,-16.4951992034912,0.896608650684357
118,-17.9933579172552,-16.1335773468018,0.711819767951965,-20.5340334832983,-16.529426574707,0.618198692798615
119,-14.6266197313671,-16.1209125518799,0.658780932426453,-14.7546985491011,-16.5145111083984,1.01178431510925
120,-17.662352713757,-16.1337585449219,1.00527799129486,-20.5956120593749,-16.5485210418701,-0.590633928775787
121,-14.4703105563403,-16.1200103759766,0.92348724603653,-18.6808579172552,-16.5661430358887,-0.632494747638702
122,-20.6622386115035,-16.1572418212891,1.05628716945648,-16.1311531789291,-16.5625782012939,-0.557795524597168
123,-15.0367488490227,-16.1481323242188,0.361064493656158,-17.0394530684176,-16.5664539337158,-0.473666608333588
124,-22.4361917695198,-16.1988430023193,0.655496001243591,-15.6447269635413,-16.5590209960938,-0.471638143062592
125,-14.6761589685244,-16.1866626739502,0.136536240577698,-18.592958825646,-16.5752925872803,-0.212543874979019
126,-13.9884396702788,-16.1692142486572,-0.200587391853333,-19.9955719448368,-16.6024379730225,-0.420892745256424
127,-16.88312681614,-16.1748371124268,1.1049280166626,-19.9955719448368,-16.6291561126709,-0.509081065654755
128,-17.9263059844367,-16.1885204315186,0.792361259460449,-17.0383149819995,-16.6323528289795,-0.334876000881195
129,-15.3789821320181,-16.1822471618652,1.00313282012939,-12.9000365812447,-16.6034183502197,-0.296514928340912
130,-17.9933579172552,-16.1961765289307,0.769942343235016,-13.346216339525,-16.5783634185791,-0.32583549618721
131,-21.9977859724184,-16.2404651641846,1.09862756729126,-15.9933579172552,-16.5738983154297,-0.349248558282852
132,-15.9884396702788,-16.2385559082031,1.03735268115997,-19.9955719448368,-16.5998210906982,-0.18927788734436
133,-9.97579042711167,-16.1914672851562,1.04394435882568,-13.9862256426972,-16.5801696777344,0.160080254077911
134,-13.8008597890386,-16.1736259460449,0.68081396818161,-21.9977859724184,-16.6205978393555,0.379116266965866
135,-15.2219907089888,-16.1665782928467,0.764537453651428,-15.9373834703394,-16.6155376434326,0.350741267204285
136,-16.4652675588648,-16.168773651123,1.14488744735718,-19.2209028274348,-16.6346950531006,0.111206948757172
137,-17.0718892312885,-16.1753635406494,0.599772453308105,-16.9041873679345,-16.636661529541,-0.0779822543263435
138,-21.6123120329425,-16.2147617340088,0.992166936397552,-21.9977859724184,-16.6755104064941,-0.237580955028534
139,-17.4375873027358,-16.2235584259033,0.979270040988922,-20.2696460189109,-16.7013683319092,-0.451534301042557
140,-9.4398467629538,-16.1751041412354,0.367670089006424,-19.992867725442,-16.7248783111572,-0.607941389083862
141,-17.9933579172552,-16.1879997253418,1.27695620059967,-13.9835214233024,-16.705436706543,-0.538157641887665
142,-16.3563997416101,-16.1891860961914,0.973779439926147,-13.0379206537875,-16.6796092987061,-0.238915398716927
143,-18.5589522265269,-16.2057571411133,-0.198527216911316,-13.6084247606555,-16.658130645752,-0.189407646656036
144,-15.7614141599439,-16.202672958374,0.561915278434753,-15.7564959129675,-16.6518707275391,-0.263887584209442
145,-24,-16.2564468383789,0.562296688556671,-18.8579412505885,-16.667085647583,-0.0358676537871361
146,-18.9834594532561,-16.27512550354,-0.582383275032043,-18.2091852553847,-16.6776466369629,0.0904683023691177
147,-14.7059109941675,-16.2644500732422,0.2025306224823,-14.6560369634519,-16.6638946533203,0.12537145614624
148,-21.1354320846969,-16.29736328125,0.360586106777191,-19.9955719448368,-16.6864070892334,0.124367110431194
149,-13.1845575611291,-16.2764720916748,0.756033658981323,-15.8450449700057,-16.6807594299316,-0.0407779440283775
150,-12.1750343025098,-16.2491283416748,0.66755622625351,-12.6881493822295,-16.6541423797607,-0.216334030032158
151,-14.2710295600006,-16.2721672058105,0.461030751466751,-16.8877125213898,-16.6515312194824,-0.174264818429947
152,-13.988929862092,-16.2930335998535,0.943591296672821,-15.9933579172552,-16.6502132415771,0.00439127255231142
153,-19.9955719448368,-16.2980365753174,0.613852262496948,-17.1078105563403,-16.6554317474365,0.236749783158302
154,-13.3173449484489,-16.3069114685059,1.14832496643066,-13.3119686043629,-16.597526550293,0.230589330196381
155,-18.9962069201042,-16.3102512359619,0.377128183841705,-15.1000409732031,-16.5515403747559,-0.0972746834158897
156,-15.3480074046108,-16.2947616577148,0.759581089019775,-13.2261010321053,-16.4868850708008,-0.42567303776741
157,-21.3610891862161,-16.3445873260498,0.554298937320709,-12.5262198049208,-16.4921283721924,-0.318497329950333
158,-20.9685449178098,-16.3635215759277,-0.216923356056213,-16.1158527976919,-16.4829006195068,-0.266658514738083
159,-15.497626294163,-16.3869132995605,0.358002066612244,-21.9977859724184,-16.5363101959229,-0.330464869737625
160,-13.1726908603986,-16.3547630310059,1.16932964324951,-12.5280367723483,-16.4940166473389,-0.323819547891617
161,-22.7429597175921,-16.4131240844727,0.249243527650833,-11.1864307921672,-16.4753341674805,-0.372813194990158
162,-17.9933579172552,-16.4150142669678,0.272551476955414,-19.9955719448368,-16.5491142272949,-0.270488679409027
163,-15.6151564603072,-16.439281463623,0.555633306503296,-19.2107794840239,-16.5572319030762,-0.166843801736832
164,-20.3915719448368,-16.4878902435303,0.974434912204742,-12.6160116151156,-16.5253105163574,-0.261612862348557
165,-15.9884396702788,-16.5013179779053,1.06128716468811,-11.9862256426972,-16.5025024414062,-0.229869738221169
166,-21.9977859724184,-16.5280151367188,0.341990351676941,-19.0445620536555,-16.529857635498,0.0398219153285027
167,-15.8367239815676,-16.542142868042,-0.0602779686450958,-16.1357273038267,-16.5174732208252,0.0642065331339836
168,-13.9862256426972,-16.4965133666992,0.294450432062149,-15.9723911281532,-16.5152645111084,-0.192473649978638
169,-15.9911438896736,-16.4831638336182,0.842923521995544,-19.9955719448368,-16.5419597625732,-0.157516911625862
170,-17.7558497720265,-16.4815654754639,0.859537720680237,-18.7357517370761,-16.5736045837402,0.0338194668292999
171,-20.7661198900423,-16.4992961883545,0.958878815174103,-16.6508921638305,-16.5664157867432,0.0170653648674488
172,-20.4717533542178,-16.5286617279053,0.939527750015259,-16.8536868450001,-16.5607395172119,-0.202531352639198
173,-17.1687117791223,-16.5293827056885,0.0764356553554535,-19.881113019296,-16.624116897583,-0.36432883143425
174,-17.9906536978604,-16.5353488922119,0.0114814937114716,-14.1045052125897,-16.5842704772949,-0.394038319587708
175,-15.4732347948274,-16.5378913879395,0.551100730895996,-15.9929239752115,-16.5549793243408,-0.220596879720688
176,-20.1955719448368,-16.5926742553711,0.347405612468719,-16.4286520349023,-16.5713195800781,0.0144950756803155
177,-21.3032642525291,-16.5880432128906,-0.322611153125763,-16.9296054281351,-16.5775947570801,0.157703533768654
178,-18.4781590095134,-16.6011848449707,-0.404087483882904,-12.7700812668569,-16.5294246673584,0.0739868208765984
179,-20.3975570564993,-16.6305618286133,-0.0978685021400452,-21.4422220689063,-16.533748626709,-0.0306075010448694
180,-23.7746100067532,-16.6925277709961,0.548002362251282,-11.4624842828129,-16.5035266876221,0.0266952086240053
181,-17.0100118142019,-16.7239780426025,-0.382803618907928,-20.1793329431434,-16.4914035797119,-0.247005239129066
182,-16.1654004503273,-16.7417488098145,0.661064207553864,-16.8931046739873,-16.4774608612061,-0.705250918865204
183,-15.9884396702788,-16.7385501861572,1.17085194587708,-15.2051605539398,-16.464038848877,-0.55441552400589
184,-13.8805300087546,-16.783411026001,1.04566168785095,-16.0821209833767,-16.4605598449707,-0.351032644510269
185,-18.199583598189,-16.8089733123779,0.826780438423157,-16.5059493979052,-16.4627628326416,-0.109465599060059
186,-20.4241433734082,-16.7851333618164,0.977325201034546,-19.9955719448368,-16.5017929077148,-0.177004411816597
187,-16.2116539559931,-16.769359588623,0.476804107427597,-16.1942507743981,-16.4859676361084,-0.178136974573135
188,-18.4752232022293,-16.8259811401367,0.872344791889191,-11.8029275650304,-16.4446983337402,-0.0691471546888351
189,-16.1794044288831,-16.8436584472656,0.383731544017792,-6.6973403230963,-16.3901252746582,0.104359202086926
190,-14.3429333646459,-16.8485069274902,0.483503103256226,-12.5100779658265,-16.3606052398682,0.305488646030426
191,-17.9933579172552,-16.8493423461914,0.830309808254242,-7.97687934055756,-16.2740039825439,0.502561151981354
192,-14.3054296039593,-16.8600234985352,0.864024221897125,-14.2955931100065,-16.250659942627,0.658784329891205
193,-13.9911438896736,-16.8054752349854,1.09126496315002,-11.9862256426972,-16.2419452667236,0.708004891872406
194,-21.9977859724184,-16.8469276428223,0.970935106277466,-14.054292556349,-16.205982208252,0.704038679599762
195,-15.7791797361463,-16.8334865570068,0.937214553356171,-18.4321877044892,-16.2412033081055,0.659646928310394
196,-9.97638914874435,-16.8003253936768,1.21481215953827,-13.988929862092,-16.2072448730469,0.598345279693604
197,-17.9933579172552,-16.8100528717041,0.831805646419525,-6.21204813913413,-16.1043701171875,0.658486366271973
198,-17.9955719448368,-16.8331546783447,1.1258190870285,-11.9840116151156,-16.0902233123779,0.745970129966736
199,-11.3723522742185,-16.8290596008301,1.13672041893005,-6.2124928781721,-16.0250511169434,0.720916330814362
200,-15.9911438896736,-16.8557739257812,1.06060814857483,-4.21829612543663,-15.9332160949707,0.559464871883392
201,-20.363639630955,-16.9065361022949,0.743294954299927,-14.5168038481285,-15.9211473464966,0.346063792705536
202,-16.1100927121836,-16.8939819335938,0.608012676239014,-17.5651620165618,-15.931640625,0.19211234152317
203,-17.9933579172552,-16.8939819335938,0.851340413093567,-21.9977859724184,-15.95774269104,-0.044430784881115
204,-13.1283825011771,-16.8412990570068,1.45010030269623,-14.6593851489415,-15.9583349227905,-0.222838491201401
205,-17.747060359934,-16.8743152618408,1.07725977897644,-17.9933579172552,-15.9547309875488,-0.161958754062653
206,-15.361514260044,-16.828800201416,0.47750335931778,-13.0448581759621,-15.9268817901611,-0.126048937439919
207,-16.2188318271415,-16.8348770141602,0.946664929389954,-14.0205393681874,-15.9240083694458,-0.0375843271613121
208,-21.9977859724184,-16.9150428771973,1.16188812255859,-13.9862256426972,-15.9640970230103,0.185735866427422
209,-9.98401161511558,-16.9016761779785,1.10897302627563,-11.9867158345104,-15.92405128479,0.410621672868729
210,-17.9933579172552,-16.9005699157715,1.05864536762238,-15.5062954048251,-15.9358720779419,0.602538228034973
211,-21.1105144735724,-16.8983001708984,1.00787305831909,-15.9911438896736,-15.904688835144,0.596809923648834
212,-19.9977859724184,-16.8995742797852,0.223337769508362,-19.7215374683774,-15.8988265991211,0.289334714412689
213,-18.5977535216508,-16.8736553192139,-0.122434139251709,-15.8400880219271,-15.8810577392578,-0.166727691888809
214,-13.9862256426972,-16.8430004119873,0.688102841377258,-11.9867158345104,-15.8604869842529,-0.242666721343994
215,-13.1286397142891,-16.8520622253418,1.25789761543274,-17.9595140504441,-15.8429203033447,0.0360313318669796
216,-20.7678491725596,-16.871768951416,-0.0499411821365356,-20.2915153453557,-15.8686618804932,0.1422318816185
217,-7.3018057821746,-16.8512802124023,1.13048875331879,-15.0170698155995,-15.8561754226685,0.0778899490833282
218,-20.177837954689,-16.8587284088135,0.69986617565155,-19.0376928926247,-15.8647508621216,0.0446106195449829
219,-24,-16.9521865844727,1.16378390789032,-16.759123683021,-15.8539419174194,0.0735334232449532
220,-16.6815463664538,-16.9422988891602,0.827835261821747,-16.459212695615,-15.8498096466064,0.215227797627449
221,-18.2108371840989,-16.9304008483887,0.750144064426422,-20.1304824043411,-15.8581590652466,0.305417090654373
222,-14.5859447874651,-16.9477462768555,0.449023216962814,-16.055820506589,-15.8586082458496,0.269778817892075
223,-18.3257888329955,-16.9450302124023,0.350394278764725,-17.5587114572412,-15.8546028137207,0.192030549049377
224,-13.9862256426972,-16.9256343841553,0.666532933712006,-13.9911438896736,-15.8096942901611,0.194301962852478
225,-15.9911438896736,-16.8955249786377,0.936831593513489,-11.9862256426972,-15.7696466445923,0.330814033746719
226,-20.0554970384698,-16.8795185089111,1.08892345428467,-18.5027212131353,-15.7833003997803,0.293273836374283
227,-15.3358239818533,-16.8555927276611,0.494189947843552,-11.743645472037,-15.7800712585449,0.0985047072172165
228,-20.2907437188973,-16.8575782775879,-0.00454756617546082,-16.4847045099793,-15.7735805511475,0.00952369254082441
229,-13.6167925044281,-16.8165073394775,-0.0373001098632812,-16.9844549264629,-15.7589550018311,0.0195222813636065
230,-14.6248033066424,-16.8104419708252,-0.258698016405106,-15.1930986784645,-15.7487010955811,-0.0797844529151917
231,-10.7527178883106,-16.7629432678223,1.1736798286438,-17.9933579172552,-15.7620849609375,-0.0667373016476631
232,-19.3647864886838,-16.8055801391602,0.481466799974442,-20.0219293458266,-15.7824544906616,-0.0411983840167522
233,-13.0417733479676,-16.7859344482422,0.182497978210449,-17.5651511098902,-15.8196287155151,-0.193835526704788
234,-13.1907668551802,-16.7837810516357,0.590329051017761,-10.8466624523988,-15.7793226242065,-0.146725416183472
235,-12.316827984105,-16.7786159515381,0.802079260349274,-9.77087218013526,-15.7224645614624,0.0585626102983952
236,-13.9862256426972,-16.7118587493896,1.04269027709961,-7.97909336813917,-15.6827669143677,0.0701153874397278
237,-16.7220855937095,-16.6911239624023,1.14066815376282,-17.9955719448368,-15.7324638366699,0.0985682383179665
238,-17.992867725442,-16.6911373138428,0.850103259086609,-10.5379168975509,-15.6760940551758,0.203323900699615
239,-11.996699001942,-16.6725387573242,0.771443903446198,-8.86928150265729,-15.6419820785522,0.310853153467178
240,-17.9933579172552,-16.7126026153564,1.02839541435242,-17.9955719448368,-15.6419954299927,0.363103061914444
241,-17.9906536978604,-16.7179050445557,1.12153160572052,-13.9862256426972,-15.6907358169556,0.277594655752182
242,-18.8547268744143,-16.7070503234863,0.421247184276581,-20.4603606772312,-15.7155952453613,0.419037342071533
243,-18.7080450022082,-16.7676467895508,0.370296388864517,-18.8194448737769,-15.6944074630737,0.526979982852936
244,-16.3112150601123,-16.772533416748,0.673454225063324,-20.7491433734082,-15.7199087142944,0.420123308897018
245,-13.9701771005716,-16.7563190460205,-0.0206592082977295,-16.3288631879192,-15.7172985076904,0.118453480303288
246,-7.97308620771686,-16.6979808807373,1.0905282497406,-13.9835214233024,-15.7373237609863,0.0140433218330145
247,-13.988929862092,-16.6785907745361,1.12718915939331,-13.988929862092,-15.7287740707397,0.308272510766983
248,-22.9193545998694,-16.7142639160156,0.82210910320282,-14.2950328859168,-15.7027215957642,0.57938939332962
249,-11.3799502288403,-16.706018447876,0.210190236568451,-18.0443983275434,-15.6896991729736,0.403346389532089
250,-15.9884396702788,-16.7506866455078,1.16507911682129,-17.9906536978604,-15.6978845596313,0.0978004783391953
251,-17.0178712123174,-16.7574310302734,1.00776422023773,-13.7159748027239,-15.6900014877319,0.0772035792469978
252,-17.9933579172552,-16.7593784332275,1.0867805480957,-7.97579042711168,-15.6045770645142,0.252136886119843
253,-9.52766059055757,-16.6895923614502,0.864530861377716,-16.9247376396736,-15.6775436401367,0.451939940452576
254,-17.375759274289,-16.6783275604248,0.600249588489532,-18.82852275242,-15.706823348999,0.538452923297882
255,-14.5659677601664,-16.6287803649902,0.730309247970581,-15.927798676405,-15.6663570404053,0.340520352125168
256,-17.9933579172552,-16.6406993865967,0.927507638931274,-15.9884396702788,-15.6886262893677,0.0851586982607841
257,-17.0575890723978,-16.6478099822998,0.868233978748322,-16.6506774699397,-15.7063703536987,0.0620420537889004
258,-7.97417512116276,-16.5848560333252,1.01070737838745,-11.9813073957208,-15.6848926544189,0.204260617494583
259,-21.9977859724184,-16.640287399292,0.699759721755981,-15.638929862092,-15.6857776641846,0.374185055494308
260,-7.97087218013526,-16.5984077453613,1.00515377521515,-17.9933579172552,-15.677734375,0.418326675891876
261,-18.0735718209985,-16.6111907958984,0.915027260780334,-11.7725818709619,-15.6726045608521,0.442151933908463
262,-17.6953692417863,-16.6225719451904,0.324059039354324,-7.46865815255366,-15.6024417877197,0.503300487995148
263,-14.426417030257,-16.6298599243164,1.11034333705902,-20.2156676386167,-15.6462955474854,0.479283154010773
264,-14.7098600946501,-16.6153354644775,1.14901220798492,-18.0212648939994,-15.677077293396,0.649027645587921
265,-10.9768793405576,-16.5918445587158,1.13286018371582,-17.6161438896736,-15.7105503082275,0.530716001987457
266,-19.1144632216699,-16.5912208557129,0.860585272312164,-16.7466994452291,-15.7096138000488,0.967647075653076
267,-14.515295410139,-16.5947322845459,0.497060298919678,-14.9826257167904,-15.7429523468018,0.392057836055756
268,-12.7852289643482,-16.5600128173828,0.73237669467926,-17.9933579172552,-15.7260160446167,0.534668803215027
269,-19.1037027448414,-16.5898609161377,0.491180211305618,-20.3748822896644,-15.7634830474854,0.489073038101196
270,-13.9862256426972,-16.5653514862061,1.27389550209045,-17.9933579172552,-15.7461347579956,0.897477269172668
271,-15.5757279965791,-16.5727195739746,-0.328695893287659,-14.842380713828,-15.7205438613892,0.428895950317383
272,-11.9840116151156,-16.5148639678955,0.953119277954102,-11.9862256426972,-15.6929121017456,1.01421165466309
273,-11.9862256426972,-16.4945297241211,1.10689043998718,-7.97958355995238,-15.6325130462646,1.03745722770691
274,-19.2118669146845,-16.4730339050293,0.969253301620483,-15.7161692382124,-15.6329879760742,0.783149361610413
275,-16.1993504266185,-16.4831886291504,0.117971301078796,-18.9484140970305,-15.6353578567505,1.0964138507843
276,-18.9156880143426,-16.5160369873047,0.279576927423477,-10.9629121383657,-15.5751399993896,0.444926023483276
277,-15.9290220279906,-16.5096759796143,1.17481744289398,-20.9955719448368,-15.5818061828613,0.443057268857956
278,-9.97909336813917,-16.456693649292,1.09364712238312,-11.9780044546933,-15.5480728149414,0.494141608476639
279,-8.93311635664491,-16.4137229919434,1.22701323032379,-14.8045316243018,-15.56077003479,0.6659255027771
280,-14.0608161092927,-16.3875045776367,1.06912887096405,-10.6859353546479,-15.5430335998535,0.776563465595245
281,-24,-16.4008522033691,1.19044244289398,-9.80886525670691,-15.5018033981323,0.822252810001373
282,-11.9840116151156,-16.3741569519043,1.14833033084869,-13.9911438896736,-15.4617738723755,0.876901745796204
283,-19.1254333889533,-16.4351539611816,1.05646872520447,-16.5333954540179,-15.4787530899048,0.917799472808838
284,-15.9906536978604,-16.4497547149658,0.864644229412079,-16.3895091889954,-15.441367149353,0.847563147544861
285,-13.988929862092,-16.4415340423584,1.1077241897583,-17.9933579172552,-15.4550733566284,0.874889731407166
286,-15.8843787565732,-16.4376602172852,-0.0901688933372498,-18.9703491293325,-15.4534034729004,0.839594423770905
287,-20.0484174732921,-16.4575023651123,1.19973874092102,-13.9824325098565,-15.4339237213135,0.888213634490967
288,-10.8994120932388,-16.3860836029053,0.882133007049561,-20.7047352914503,-15.4253044128418,0.766233146190643
289,-7.97417512116276,-16.3229942321777,1.257115483284,-18.6695527804292,-15.4146366119385,0.284745812416077
290,-15.9911438896736,-16.3666706085205,1.08432793617249,-9.98179758753398,-15.3478975296021,0.700862109661102
291,-18.4020982771524,-16.3693962097168,1.17015421390533,-17.9906536978604,-15.3746109008789,0.859540224075317
292,-9.35664438854733,-16.3227310180664,0.0281972289085388,-17.9933579172552,-15.4076461791992,0.826140820980072
293,-14.2612512906634,-16.2940807342529,1.14114725589752,-19.2612150601123,-15.4453315734863,0.511789321899414
294,-18.2029649041548,-16.3103561401367,1.13721227645874,-13.7351033181723,-15.4318571090698,0.345487058162689
295,-7.97687934055756,-16.2035350799561,1.21402287483215,-15.9906536978604,-15.4127407073975,0.325818419456482
296,-16.551384853529,-16.1873207092285,-0.12840873003006,-6.29123820201489,-15.3332891464233,0.369452655315399
297,-14.3590116151156,-16.1850090026855,1.03590512275696,-14.801429862092,-15.3342580795288,0.743672966957092
298,-15.4226346202533,-16.1469230651855,1.33266317844391,-8.98186687172963,-15.2608337402344,0.837867558002472
299,-15.9933579172552,-16.1656475067139,0.916987359523773,-11.1068186326594,-15.2292451858521,-0.120916724205017
300,-14.1464101770526,-16.1787929534912,0.985605299472809,-12.4591567793923,-15.2277183532715,0.760263502597809
301,-15.9911438896736,-16.190258026123,1.29503345489502,-13.9862256426972,-15.2083759307861,0.835868835449219
302,-13.6279195382141,-16.1878509521484,1.17063093185425,-17.6296433739825,-15.2192840576172,0.880650520324707
303,-13.3650942128888,-16.143648147583,1.16542947292328,-15.2294688859404,-15.2067613601685,0.942437469959259
304,-17.1301063369454,-16.1690673828125,0.951220393180847,-9.98179758753398,-15.1845607757568,0.824955999851227
305,-17.3026541341192,-16.1577758789062,-0.329971522092819,-17.3402710717185,-15.1994953155518,0.0382380485534668
306,-16.5538421427937,-16.1658153533936,-0.339689940214157,-14.8340537053665,-15.2102146148682,0.773661732673645
307,-18.3739818389535,-16.145902633667,-0.3289715051651,-17.9718667812399,-15.2465200424194,0.771554350852966
308,-3.47180475136664,-16.0292587280273,0.521065831184387,-19.9955719448368,-15.272385597229,0.749941647052765
309,-14.110753944584,-16.0200099945068,1.30894577503204,-16.319445776466,-15.2345275878906,0.727540969848633
310,-9.98450180692879,-15.9987564086914,1.26194298267365,-13.988929862092,-15.2442674636841,0.708966135978699
311,-12.3938889989159,-15.929762840271,1.24441349506378,-16.666197423428,-15.280800819397,0.823211431503296
312,-21.0048027140676,-15.9498386383057,0.325180739164352,-17.4952690824758,-15.2641305923462,0.501130819320679
313,-17.5927757136392,-15.9630222320557,-0.000891059637069702,-21.9977859724184,-15.2827119827271,-0.646766424179077
314,-15.3334009105889,-15.9293022155762,0.0702164471149445,-11.4418661480141,-15.2748832702637,0.953669726848602
315,-16.6219850111689,-15.9335250854492,1.04445934295654,-16.0403317312509,-15.3019104003906,0.946543633937836
316,-18.8977057433422,-15.9128580093384,-0.619938731193542,-15.5947269635413,-15.2789125442505,0.513211309909821
317,-9.98179758753398,-15.8738250732422,1.22217631340027,-11.9813073957208,-15.2512159347534,0.822060585021973
318,-11.9780044546933,-15.8604364395142,1.267578125,-13.9835214233024,-15.2379570007324,0.913628756999969
319,-9.97800445469328,-15.820348739624,0.766984760761261,-16.7878918571533,-15.21657371521,0.552459239959717
320,-17.1670969688525,-15.816424369812,0.876302361488342,-20.3513575101771,-15.2273435592651,-0.48287445306778
321,-14.4041943926972,-15.7740106582642,0.642469465732574,-15.6017209202788,-15.2203483581543,0.700677275657654
322,-19.9955719448368,-15.7708368301392,0.769635915756226,-18.0579837675953,-15.2283773422241,-0.0600728392601013
323,-11.8568457046403,-15.7354230880737,0.715367078781128,-5.69750613934348,-15.1338195800781,0.776622593402863
324,-14.4514662844084,-15.7118291854858,-0.488029032945633,-13.2829866639441,-15.128342628479,0.203682780265808
325,-15.9911438896736,-15.7152833938599,0.925343990325928,-9.98179758753398,-15.0882682800293,1.1756843328476
326,-17.9933579172552,-15.7006006240845,0.890430510044098,-16.5790559775857,-15.0892705917358,1.04097974300385
327,-12.2564247332904,-15.6402883529663,0.875413239002228,-5.81180871511324,-15.0151529312134,1.08233547210693
328,-16.8388001396736,-15.629358291626,0.905560314655304,-12.114610087534,-15.0107831954956,0.911057412624359
329,-12.4892427489892,-15.5766372680664,0.557816624641418,-16.0373970398938,-14.9747495651245,0.683277606964111
330,-18.5614330346261,-15.5418844223022,1.12257564067841,-15.6468851489415,-15.002646446228,0.877276718616486
331,-16.7804296039593,-15.5403518676758,0.244814068078995,-18.8310751088667,-14.9936590194702,0.780259251594543
332,-20.0573480066129,-15.5662984848022,0.331015020608902,-13.1170005936894,-14.9684829711914,0.656932353973389
333,-24,-15.6197090148926,-0.661147594451904,-12.9486959638144,-14.9534406661987,0.610931873321533
334,-5.6030667547042,-15.5645265579224,0.0815561860799789,-14.8814029803716,-14.9454364776611,0.683551132678986
335,-14.5419206099345,-15.5401420593262,1.09353125095367,-18.3848472789573,-14.9579620361328,0.798667848110199
336,-11.9862256426972,-15.4838886260986,1.02539312839508,-13.9862256426972,-14.9179000854492,0.826130867004395
337,-15.9884396702788,-15.482400894165,0.611982047557831,-7.43679233689348,-14.8595180511475,0.172734498977661
338,-12.6479714513929,-15.4435529708862,0.258425354957581,-13.0527224351705,-14.8678503036499,0.359530806541443
339,-13.9862256426972,-15.4289302825928,1.01928150653839,-15.9933579172552,-14.9298229217529,1.05238616466522
340,-18.9508047257658,-15.4596500396729,0.837909579277039,-11.4274623673933,-14.9226055145264,0.991802990436554
341,-9.98450180692879,-15.4062585830688,1.13722801208496,-7.97687934055757,-14.9226055145264,0.894667565822601
342,-14.422483866309,-15.4070377349854,1.29439556598663,-14.9484886856214,-14.9269580841064,0.837987720966339
343,-15.9911438896736,-15.420371055603,1.10863077640533,-17.9933579172552,-14.967004776001,0.762800693511963
344,-7.98450180692879,-15.3269500732422,1.1636962890625,-13.9911438896736,-14.9665851593018,0.810963749885559
345,-19.4454127117757,-15.3513898849487,0.971774578094482,-18.9906536978604,-14.9703073501587,0.979105949401855
346,-7.97087218013526,-15.3380212783813,0.959661424160004,-13.9862256426972,-14.970290184021,1.03372693061829
347,-16.1120019850518,-15.325478553772,0.996757090091705,-12.3335626304536,-15.0110998153687,1.03217971324921
348,-15.9884396702788,-15.3120975494385,1.25092923641205,-17.9933579172552,-15.0511617660522,0.948500454425812
349,-24,-15.3962812423706,1.04111874103546,-12.5239385752598,-15.0932388305664,0.961745858192444
350,-9.72390174177056,-15.3545007705688,1.49018597602844,-17.5850305793697,-15.1823501586914,0.885193347930908
351,-17.1644173239101,-15.3331718444824,0.401198029518127,-17.6162629451882,-15.2030124664307,0.629755437374115
352,-14.838211202264,-15.3246927261353,0.739375710487366,-15.2028321408921,-15.1872644424438,0.763142883777618
353,-12.0442953030588,-15.2850322723389,0.871999979019165,-8.57971621999019,-15.0978107452393,0.851545453071594
354,-10.9121077222062,-15.2702569961548,0.532077431678772,-14.1298998705348,-15.0942802429199,0.242730617523193
355,-12.3071779645561,-15.2339925765991,1.08139932155609,-13.9802184822749,-15.0675258636475,1.01698422431946
356,-21.9977859724184,-15.2782344818115,0.995723724365234,-15.9884396702788,-15.0871515274048,1.00770783424377
357,-7.6764161391379,-15.2212839126587,0.231949836015701,-16.5658045231578,-15.1041173934937,1.05274963378906
358,-11.9840116151156,-15.1545248031616,1.15948569774628,-13.9911438896736,-15.1041507720947,1.07987427711487
359,-13.7688217416979,-15.1797571182251,1.10390830039978,-17.9906536978604,-15.1441764831543,1.1008825302124
360,-11.988929862092,-15.1397285461426,1.30558669567108,-13.988929862092,-15.1340608596802,1.13302910327911
361,-13.6954740657085,-15.0902948379517,1.034219622612,-22.9187345890192,-15.1802453994751,-0.191186785697937
362,-18.0568499807473,-15.0773553848267,1.10984671115875,-11.2038442835036,-15.123459815979,0.802582442760468
363,-22,-15.1000356674194,0.825138688087463,-16.3217730036121,-15.1266717910767,1.02121472358704
364,-11.9862256426972,-15.0867023468018,0.952374935150146,-5.97136237194847,-15.0865688323975,0.922242701053619
365,-20.3483227538983,-15.1348342895508,-0.23889684677124,-16.3438946987351,-15.0757989883423,-0.178827166557312
366,-15.9884396702788,-15.1029720306396,1.25609624385834,-13.9911438896736,-15.0337972640991,1.16375386714935
367,-15.9884396702788,-15.1608819961548,0.798141121864319,-18.0600245839219,-15.0540838241577,0.236152052879333
368,-16.215781570833,-15.1344690322876,0.374087274074554,-17.9906536978604,-15.0471029281616,1.18771159648895
369,-13.5117893928934,-15.0645475387573,1.06254756450653,-10.4363377880266,-15.0049514770508,0.962087213993073
370,-15.4660779266129,-15.0564432144165,-0.171521604061127,-18.4550993420573,-15.0182580947876,0.355688184499741
371,-13.985735450884,-15.0282764434814,1.21445524692535,-11.9840116151156,-14.9639482498169,0.830264627933502
372,-13.9884396702788,-15.0242938995361,1.22725033760071,-7.97958355995238,-14.9101057052612,1.04441976547241
373,-11.9840116151156,-14.9820146560669,1.21855461597443,-15.9884396702788,-14.89963722229,1.19148993492126
374,-18.2656092261557,-15.0105447769165,1.6078075170517,-15.3003617683516,-14.9083642959595,1.20139133930206
375,-16.6776642658491,-15.0151224136353,0.380032956600189,-10.2142030860075,-14.8965511322021,1.17725598812103
376,-14.9081006426972,-14.9808053970337,0.358939230442047,-19.2406536978604,-14.9014711380005,1.15068185329437
377,-13.0690266939664,-14.9656934738159,0.771622180938721,-19.992867725442,-14.9564647674561,1.15306234359741
378,-13.4334283141162,-14.9199771881104,1.27557480335236,-14.2598658226831,-14.9416341781616,1.1242663860321
379,-14.4116761848016,-14.9252767562866,0.837888240814209,-10.804819509218,-14.9004364013672,1.04263710975647
380,-15.2448068783951,-14.9294109344482,0.741547107696533,-20.8536955146308,-14.9381742477417,0.961714863777161
381,-15.7330610857352,-14.9626140594482,0.836966395378113,-10.0197722710783,-14.8850164413452,0.783879995346069
382,-16.6450315780447,-14.9444828033447,1.02065670490265,-22.3019334378562,-14.9002161026001,0.77288144826889
383,-10.7399005658738,-14.9291343688965,1.36925888061523,-16.9562601687434,-14.8961572647095,0.852178812026978
384,-13.9862256426972,-14.9344387054443,1.38316106796265,-13.9862256426972,-14.9170866012573,0.91044819355011
385,-18.0757600808391,-14.9728317260742,1.0108630657196,-14.9223958554631,-14.9514322280884,0.993468940258026
386,-19.9977859724184,-15.0129089355469,0.167400062084198,-20.8733774311211,-15.037392616272,0.920008659362793
387,-17.5388124627097,-15.0183525085449,0.587751984596252,-15.334710491182,-15.0196552276611,0.7727210521698
388,-13.8361242911719,-14.9906415939331,0.556307315826416,-12.5587721844532,-15.0331268310547,0.67283570766449
389,-19.2628996962309,-15.039083480835,-0.284146130084991,-14.8245005753117,-15.0728273391724,-0.231192052364349
390,-16.2893895037087,-15.0277242660522,0.797248721122742,-17.9933579172552,-15.0728120803833,0.961699783802032
391,-16.421311487439,-15.0172624588013,0.680265545845032,-17.3542723812937,-15.0952653884888,0.516127169132233
392,-11.9835214233024,-14.971453666687,1.34243094921112,-11.9775142628801,-15.0387125015259,0.910632729530334
393,-13.988929862092,-14.9399919509888,1.32022905349731,-5.97736953237077,-14.9530992507935,1.07520306110382
394,-14.6096824328206,-14.9286489486694,1.09821081161499,-20.2486583645899,-14.9497623443604,1.14755690097809
395,-15.9933579172552,-14.9421367645264,1.32523584365845,-14.4169948734664,-14.9370164871216,0.913161218166351
396,-14.7409959777945,-14.9872560501099,1.3653792142868,-18.3900521321312,-14.9663934707642,0.862118721008301
397,-12.672483866309,-14.978479385376,0.577111184597015,-10.6389135716347,-14.9440593719482,0.027264416217804
398,-14.1918440396386,-14.9202966690063,0.842325806617737,-19.9977859724184,-14.9820804595947,0.860975623130798
399,-11.9098718334737,-14.923828125,0.681976318359375,-12.9326896558422,-14.9480009078979,-0.277816385030746
400,-19.9955719448368,-14.9505434036255,0.936137616634369,-18.0063768900097,-14.9481058120728,0.733281135559082
401,-13.9884396702788,-14.9303464889526,1.54001986980438,-13.988929862092,-14.9499254226685,0.899341106414795
402,-7.97687934055756,-14.8635711669922,1.4791088104248,-17.9933579172552,-15.0167093276978,1.08121705055237
403,-18.7523940618335,-14.92506980896,1.4091991186142,-19.789850485009,-15.0358104705811,1.1839200258255
404,-15.9884396702788,-14.9158201217651,1.45647096633911,-15.9933579172552,-15.0169095993042,1.19002783298492
405,-9.97909336813917,-14.8852405548096,1.44512128829956,-9.97909336813917,-14.9772510528564,1.19449484348297
406,-16.7811438896736,-14.877158164978,1.41354131698608,-18.5883579172552,-14.9945831298828,1.19519221782684
407,-14.0417056874264,-14.8570528030396,1.32325744628906,-17.9933579172552,-15.0035352706909,1.17489147186279
408,-9.67877951638066,-14.8684177398682,1.56666898727417,-16.8052464537762,-15.0356950759888,1.18812787532806
409,-16.9273141024396,-14.8346157073975,0.902628898620605,-15.8825468833686,-15.037317276001,1.23552894592285
410,-11.9790933681392,-14.8613348007202,0.696611762046814,-10.5267246551645,-14.9875402450562,0.946800827980042
411,-21.9977859724184,-14.8874969482422,0.302680313587189,-19.2948654549436,-15.0376892089844,0.993449032306671
412,-16.3877241144383,-14.8787794113159,0.430849969387054,-18.3145973598322,-15.1099967956543,0.83908474445343
413,-24,-14.9426021575928,-0.172483444213867,-13.463077494549,-15.0649785995483,-0.106370687484741
414,-11.5586852048739,-14.921594619751,1.35794794559479,-9.65575716710229,-15.0092086791992,0.742639064788818
415,-13.6840116151156,-14.9396419525146,0.210744857788086,-11.9835214233024,-14.971658706665,0.96898090839386
416,-19.992867725442,-14.9454984664917,0.460246741771698,-17.9933579172552,-14.9799690246582,0.39310222864151
417,-17.9933579172552,-14.9686861038208,0.959336400032043,-19.6600245839219,-15.0111503601074,0.644632160663605
418,-14.0823174967309,-14.977334022522,0.370630085468292,-8.60729544489659,-14.9485778808594,-0.599243462085724
419,-14.586833244576,-14.9472217559814,0.980315029621124,-16.5774892711997,-14.9232616424561,0.953340947628021
420,-18.8251860719611,-14.9794826507568,1.19090533256531,-15.0581680887403,-14.9036951065063,0.937748789787292
421,-19.992867725442,-15.0089292526245,0.829083323478699,-14.7506142738147,-14.9030828475952,0.981548964977264
422,-13.9862256426972,-15.0222749710083,1.41072356700897,-11.9780044546933,-14.9030275344849,1.07181119918823
423,-7.96083079843194,-14.9954395294189,1.43850588798523,-11.9840116151156,-14.929723739624,1.21950817108154
424,-15.9824325098565,-14.9739112854004,1.42818546295166,-13.9862256426972,-14.9181900024414,1.28958058357239
425,-17.8559398080409,-14.9849557876587,1.4423942565918,-13.2353205230912,-14.8801021575928,1.18925416469574
426,-13.8542406227492,-14.9512128829956,1.05814552307129,-18.9092287614736,-14.9330797195435,1.22187721729279
427,-17.9933579172552,-14.9649744033813,-0.269105672836304,-10.1443992135502,-14.8607368469238,0.166940927505493
428,-18.6833042868442,-15.0230016708374,1.16143476963043,-15.5115899863279,-14.8842935562134,0.566361308097839
429,-13.9884396702788,-15.0567045211792,1.3108856678009,-13.985735450884,-14.8788347244263,0.875767529010773
430,-17.9933579172552,-15.0829200744629,1.18738090991974,-11.3418840658136,-14.8832092285156,0.986546337604523
431,-19.9955719448368,-15.0562238693237,0.833356261253357,-14.747181817996,-14.9161329269409,1.17476212978363
432,-9.98401161511558,-15.0428905487061,1.38562750816345,-15.9933579172552,-14.929479598999,1.1091992855072
433,-20.6034150820917,-15.0527439117432,0.711288630962372,-16.5256945722396,-14.9294271469116,0.914515197277069
434,-21.0819916979232,-15.0866861343384,-0.193990707397461,-22.4586913222126,-14.9698896408081,-0.712913811206818
435,-9.4676940465889,-15.056544303894,1.05758595466614,-17.2676144779089,-14.9650506973267,1.21508598327637
436,-7.97687934055756,-15.0038280487061,1.36690485477448,-13.9835214233024,-14.9318046569824,1.11636304855347
437,-9.98401161511558,-14.936731338501,1.24692559242249,-13.9911438896736,-14.9318618774414,1.05956053733826
438,-15.9884396702788,-14.9706592559814,1.27325570583344,-9.97530023529846,-14.860333442688,1.18626821041107
439,-12.758712415184,-15.0025548934937,0.98322856426239,-13.2301020778966,-14.8240718841553,1.21855163574219
440,-12.887747214293,-14.9818668365479,-0.478161841630936,-10.5709725623977,-14.8280000686646,0.874406039714813
441,-9.98179758753398,-14.9257326126099,1.26807045936584,-9.97579042711168,-14.7745666503906,0.698513686656952
442,-7.49714094969626,-14.9133348464966,1.19134283065796,-19.9955719448368,-14.7879152297974,0.970167636871338
443,-16.539224693455,-14.9285221099854,1.22514188289642,-12.6672414287802,-14.7439546585083,1.11824345588684
444,-16.3314580257992,-14.9160451889038,1.29188561439514,-16.9597302771082,-14.7654523849487,0.915092468261719
445,-19.9955719448368,-14.9961700439453,0.41225528717041,-16.9001382455173,-14.7715148925781,0.846120119094849
446,-13.4102411233123,-14.9752283096313,0.0138789117336273,-18.3125118355472,-14.8516569137573,0.691989541053772
447,-17.4737525853258,-14.9959926605225,-0.0767082571983337,-14.7324081229616,-14.8511962890625,0.505240559577942
448,-14.3845262426148,-14.9890718460083,1.12584149837494,-9.71450726902017,-14.8560810089111,0.532513082027435
449,-15.9911438896736,-14.9890575408936,1.09539413452148,-9.97579042711168,-14.8485403060913,0.732289135456085
450,-19.9955719448368,-15.0280513763428,1.16995692253113,-13.988929862092,-14.858738899231,1.05977702140808
451,-21.9977859724184,-15.068097114563,1.15018558502197,-7.98179758753398,-14.8187093734741,1.31976437568665
452,-11.9753002352985,-15.0570802688599,1.16611301898956,-9.98450180692879,-14.7677412033081,1.29761731624603
453,-14.1027900598751,-15.0619974136353,0.382348954677582,-17.9933579172552,-14.786169052124,1.10856294631958
454,-15.9668350609797,-15.0542411804199,1.06782615184784,-15.1658140501419,-14.8207273483276,1.03256118297577
455,-19.3764404998908,-15.0680685043335,0.722248077392578,-17.4784535343436,-14.8216485977173,0.986256301403046
456,-17.0895894855285,-15.0716390609741,1.10220098495483,-11.3728757515589,-14.7985744476318,1.08012235164642
457,-17.7349455425662,-15.0673780441284,0.144473373889923,-18.8170999788521,-14.8042087554932,0.929987013339996
458,-17.9933579172552,-15.1641893386841,0.026867687702179,-15.9933579172552,-14.7775278091431,0.692560195922852
459,-18.9955719448368,-15.196756362915,-0.00597548484802246,-13.8105550548942,-14.7608022689819,0.639342367649078
460,-19.6258243015349,-15.2610301971436,-0.468720674514771,-17.7234273542405,-14.7856979370117,0.672116637229919
461,-9.97308620771686,-15.2448921203613,-0.150704383850098,-19.9955719448368,-14.8078937530518,0.588610172271729
462,-16.9911438896736,-15.2181348800659,0.858201146125793,-16.9884396702788,-14.8045148849487,0.566287636756897
463,-7.97357639953007,-15.1540069580078,0.816719472408295,-11.9867158345104,-14.737774848938,0.887759327888489
464,-13.3325724737758,-15.1406669616699,1.1055496931076,-19.062086439592,-14.7885770797729,0.357041716575623
465,-10.5866606217381,-15.1004295349121,0.804630160331726,-10.3195459319048,-14.7504377365112,0.872294425964355
466,-9.68111357015937,-15.038987159729,0.755963623523712,-9.27499139661146,-14.7083072662354,0.923655807971954
467,-12.7196944344988,-15.0572395324707,0.982053160667419,-15.9906536978604,-14.7350358963013,1.06539487838745
468,-15.9382541864163,-15.0836429595947,1.10894882678986,-13.6948193925422,-14.7331123352051,0.973692297935486
469,-17.389817083537,-15.1330537796021,-0.213331371545792,-15.2297461886226,-14.7227249145508,0.755838334560394
470,-12.2919024985924,-15.1005535125732,-0.18097460269928,-14.2946067179872,-14.6823453903198,0.727687418460846
471,-16.6871925218924,-15.1157732009888,0.464972168207169,-18.2881907440029,-14.7002534866333,0.902502954006195
472,-17.8901250635372,-15.1017379760742,-0.0656557083129883,-15.0473236649545,-14.6801843643188,0.821886837482452
473,-18.8957969416454,-15.148663520813,-0.600238859653473,-12.9640092281804,-14.7286281585693,-0.619256019592285
474,-17.9933579172552,-15.1722755432129,0.901111483573914,-13.9862256426972,-14.7333173751831,0.754494369029999
475,-5.97736953237077,-15.1055154800415,0.90240752696991,-11.988929862092,-14.7466955184937,1.02790403366089
476,-16.3653627472019,-15.0946626663208,0.688809037208557,-16.4526823512121,-14.7458524703979,1.17798209190369
477,-16.1317870049491,-15.1204996109009,0.930646777153015,-9.68786211381579,-14.771692276001,1.12096393108368
478,-18.2830724704236,-15.1301288604736,0.535963892936707,-12.9140234766322,-14.7770233154297,0.95577746629715
479,-15.3093257078554,-15.1489286422729,0.348026067018509,-16.8456306445279,-14.7824125289917,0.831384837627411
480,-6.3236100741244,-15.0673418045044,0.670658051967621,-18.6450095689068,-14.8023986816406,0.704863429069519
481,-16.8265553609953,-15.0676498413086,0.507363200187683,-15.3380570441369,-14.7791109085083,0.655130207538605
482,-16.215480186189,-15.0420379638672,0.132198512554169,-11.8428587220009,-14.7706184387207,0.691534101963043
483,-19.9955719448368,-15.015341758728,0.368385970592499,-17.3375668523237,-14.7998762130737,0.860019326210022
484,-11.9813073957208,-15.0578641891479,0.684163808822632,-15.9911438896736,-14.8072757720947,0.984394371509552
485,-20.8210305244765,-15.0997247695923,0.321557521820068,-18.5090964160445,-14.8081026077271,0.641522347927094
486,-11.9813073957208,-15.0996904373169,0.844852805137634,-15.9911438896736,-14.8214693069458,1.09327208995819
487,-17.9906536978604,-15.1130399703979,0.797765731811523,-3.96043696454975,-14.7982940673828,1.03521776199341
488,-13.5538153582752,-15.1190786361694,0.186043381690979,-13.5717978746576,-14.8017549514771,1.24189436435699
489,-11.7534238851118,-15.1041927337646,-0.176792204380035,-18.0037385400926,-14.8151559829712,1.15494465827942
490,-14.3318036425866,-15.0733985900879,-0.48772007226944,-15.6956444803725,-14.8436117172241,0.624380648136139
491,-15.9911438896736,-15.1134443283081,0.611158609390259,-5.96132099024515,-14.830174446106,0.716063439846039
492,-5.97087218013526,-15.0570993423462,0.72574520111084,-9.98401161511558,-14.7970781326294,1.05565977096558
493,-15.9911438896736,-15.0570993423462,0.502704620361328,-16.7994772272721,-14.789119720459,1.27633202075958
494,-12.0503623260161,-15.0842056274414,0.349437326192856,-17.9247931787731,-14.8153438568115,1.27729594707489
495,-20.6284833372419,-15.0920934677124,-0.401029646396637,-9.98401161511558,-14.7552995681763,1.06734943389893
496,-13.9835214233024,-15.1321773529053,0.226037949323654,-13.4990461555177,-14.7520503997803,0.687946915626526
497,-17.4080735354975,-15.1408166885376,0.229886680841446,-14.5838016569638,-14.7670526504517,0.528770685195923
498,-15.9906536978604,-15.1408319473267,0.393264651298523,-10.1080268815412,-14.7144823074341,0.545956909656525
499,-13.4528923093638,-15.070517539978,0.218261659145355,-13.3355965287587,-14.719895362854,1.04353892803192
500,-6.74393928426814,-15.0506525039673,0.734450697898865,-18.1804327471872,-14.7238636016846,0.605041086673737
501,-11.988929862092,-15.016149520874,2.07775068283081,-15.9884396702788,-14.7130107879639,0.636974632740021
502,-18.0137683240627,-15.0373191833496,0.321284472942352,-9.28044012147063,-14.6735286712646,0.656026780605316
503,-4.49581948697124,-14.9869956970215,0.988989114761353,-9.97308620771686,-14.6828193664551,0.188292443752289
504,-10.8533133914613,-14.9866027832031,0.572192192077637,-19.0570521847711,-14.7156677246094,0.635244369506836
505,-20.6611237843017,-15.0422964096069,0.233188450336456,-18.5674782993518,-14.7462463378906,0.58145010471344
506,-14.5170740315123,-14.9924249649048,-0.373357355594635,-14.8981199158249,-14.738977432251,-0.142893731594086
507,-18.8558114488537,-15.0669546127319,-0.342319786548615,-12.7153403698264,-14.7133102416992,0.62785392999649
508,-14.216536564785,-15.0818376541138,-0.344737887382507,-19.2410643392735,-14.7483072280884,0.031484842300415
509,-11.0118990672028,-15.063458442688,0.446433246135712,-12.4725270125602,-14.7115201950073,0.895003437995911
510,-19.2640346089845,-15.1119594573975,-0.140990376472473,-19.4391809673932,-14.7478561401367,0.989403009414673
511,-14.0513432859385,-15.114333152771,0.0898128747940063,-18.6018367202477,-14.7190771102905,-0.494830548763275
512,-11.9862256426972,-15.0738611221313,0.13434636592865,-14.4371799598877,-14.7406330108643,1.03314220905304
513,-13.8952083369362,-15.0198287963867,0.401169538497925,-15.4976647625297,-14.7351379394531,1.02032721042633
514,-8.6426279053261,-14.9975395202637,0.441698968410492,-18.7643502836674,-14.8204250335693,0.939731478691101
515,-15.9423870386998,-14.968165397644,0.43531346321106,-16.0838344071209,-14.8186912536621,0.851521670818329
516,-16.7347336332633,-14.9731416702271,-0.393638759851456,-13.3985415296455,-14.8147411346436,-0.292598605155945
517,-18.2648027140676,-14.988317489624,-0.0744002461433411,-13.4350605661645,-14.7839078903198,0.900457799434662
518,-16.8961319779711,-14.9928531646729,0.070279598236084,-19.9955719448368,-14.7972736358643,1.00872623920441
519,-15.9884396702788,-15.0093631744385,-0.0543438792228699,-13.9884396702788,-14.8209533691406,0.932411074638367
520,-16.4248486478349,-15.0157556533813,-0.25508725643158,-13.3331387971605,-14.786808013916,0.934904515743256
521,-13.9862256426972,-15.0157585144043,0.249652922153473,-5.97196109358115,-14.7467288970947,0.90719997882843
522,-20.4110022118991,-15.0585746765137,0.390647172927856,-16.6412586613767,-14.8044729232788,1.00803673267365
523,-15.985735450884,-15.0852537155151,0.790389835834503,-13.988929862092,-14.7911424636841,1.13763165473938
524,-18.9332978571951,-15.0897035598755,0.637966692447662,-13.8665957143903,-14.7815837860107,6.63128471374512
525,0.0594409111063935,-14.978123664856,0.663915574550629,-7.98450180692879,-14.7667188644409,1.26048970222473
526,-18.8503939576006,-15.0044059753418,0.266558289527893,-15.3364916183307,-14.7406921386719,1.3115097284317
527,-18.4895700384673,-15.0405435562134,0.480085015296936,-8.12839449207272,-14.6615953445435,1.26714146137238
528,-7.97357639953007,-15.0041437149048,0.587392449378967,-5.97087218013526,-14.6063365936279,1.27250576019287
529,-12.7281976616272,-14.9929218292236,-0.0633160471916199,-17.4708046028797,-14.6507759094238,-0.525944352149963
530,-9.23316074759274,-14.9528436660767,0.616952836513519,-15.5366685555593,-14.6153287887573,1.33216190338135
531,-12.4059769330347,-14.9306621551514,-0.396834820508957,-12.2645443899404,-14.6302928924561,1.0733163356781
532,-11.2897461375407,-14.8949613571167,0.212785065174103,-13.2956999268039,-14.5702524185181,1.29200780391693
533,-14.3711649843325,-14.9191703796387,0.301129341125488,-16.682501914365,-14.5684261322021,1.15732002258301
534,-11.0839160304648,-14.8998212814331,-0.438876450061798,-17.9906536978604,-14.5951232910156,1.23151016235352
535,-20.381347616254,-14.9151916503906,-0.0556021928787231,-19.9955719448368,-14.628945350647,1.21385359764099
536,-15.7095281056529,-14.8866033554077,-0.386081099510193,-12.0710285223498,-14.5702600479126,1.21596574783325
537,-11.0684733539409,-14.843466758728,-0.228330910205841,-9.52592502336701,-14.5315361022949,1.24239373207092
538,-9.97579042711167,-14.8177328109741,0.0289313197135925,-15.9911438896736,-14.5544185638428,1.25793552398682
539,-13.9862256426972,-14.7825536727905,0.530088603496552,-13.9862256426972,-14.5488309860229,1.29511141777039
540,-5.97087218013526,-14.7137641906738,0.565048694610596,-9.95078025470536,-14.4952144622803,1.38388061523438
541,-14.3761639046452,-14.7001304626465,0.474713087081909,-13.6563520406475,-14.4705600738525,1.36335933208466
542,-8.21773858293135,-14.6750259399414,0.208648920059204,-12.8717733057748,-14.4765214920044,1.33156144618988
543,-11.2604861121241,-14.6568355560303,0.202610373497009,-10.2621574601578,-14.505087852478,1.28753793239594
544,-19.992867725442,-14.692723274231,-0.43802148103714,-18.8629941233923,-14.495849609375,1.15677511692047
545,-18.5243313685826,-14.7095966339111,-0.849549174308777,-15.9933579172552,-14.5063591003418,-0.0801941156387329
546,-18.9561831960656,-14.737696647644,-0.275786280632019,-10.760963287978,-14.4554977416992,1.00782561302185
547,-19.992867725442,-14.7865009307861,-0.412537574768066,-17.3395759454227,-14.500168800354,1.07697200775146
548,-15.9933579172552,-14.7985105514526,0.346183061599731,-15.9884396702788,-14.4734411239624,1.16049718856812
549,-18.9574604813578,-14.845495223999,0.162679433822632,-8.45893062260885,-14.4436168670654,1.13654232025146
550,-14.9032155763777,-14.8115463256836,-0.190183997154236,-20.3166772492515,-14.4590167999268,1.21913015842438
551,-7.97909336813917,-14.7714824676514,0.417881369590759,-11.9840116151156,-14.4456510543823,1.27823483943939
552,-8.67227261038498,-14.7761201858521,0.533686995506287,-19.228020031414,-14.4538831710815,1.25210428237915
553,-9.97579042711168,-14.7176094055176,0.578253149986267,-15.9884396702788,-14.4285383224487,1.14759731292725
554,-21.7596907343232,-14.7560844421387,0.412625312805176,-17.3959057944355,-14.4378910064697,1.10569107532501
555,-13.9236441610473,-14.7823810577393,-0.155127882957458,-15.700136403852,-14.4760284423828,1.14867866039276
556,-12.6217095136649,-14.7546520233154,-0.287074029445648,-15.0769926758233,-14.4526205062866,1.03605484962463
557,-20.5824140501,-14.7982549667358,-0.19348132610321,-19.0459894962026,-14.4596385955811,0.875457644462585
558,-16.7302000225184,-14.8452653884888,0.412380456924438,-16.7279859949368,-14.4591245651245,0.807547509670258
559,-19.4984426630179,-14.8624057769775,4.67915630340576,-16.0743612359175,-14.4604034423828,-0.885290801525116
560,-19.3483197493163,-14.9115333557129,-0.707388937473297,-16.5751133553225,-14.5007257461548,0.884448826313019
561,-14.7511438896736,-14.8632230758667,-0.801250457763672,-15.2262256426972,-14.4736022949219,0.809336006641388
562,-13.9862256426972,-14.8472118377686,-0.667631506919861,-19.9955719448368,-14.4848079681396,0.765774011611938
563,-17.9933579172552,-14.807168006897,0.297436654567719,-6.09388247133343,-14.4356784820557,0.938303172588348
564,-11.9813073957208,-14.8099851608276,-0.166334688663483,-12.3005945940341,-14.453311920166,1.14970660209656
565,-20.298253937174,-14.8540802001953,0.00512009859085083,-10.4476131476826,-14.4430732727051,1.17679786682129
566,-20.7283963723177,-14.8589839935303,-0.623980760574341,-13.4894548363727,-14.413046836853,1.07485353946686
567,-14.727245640428,-14.8372106552124,-0.919877111911774,-17.2570963866967,-14.3970260620117,0.912181079387665
568,-18.6863058717734,-14.8679037094116,-0.773982584476471,-17.1918127859947,-14.4542560577393,0.826672732830048
569,-12.397480110124,-14.8533086776733,-0.353855907917023,-11.7683144414666,-14.4221954345703,0.917894840240479
570,-15.9884396702788,-14.8343963623047,-0.30203041434288,-11.8616774674139,-14.4008855819702,1.00845527648926
571,-11.9862256426972,-14.7810192108154,-0.326849013566971,-11.9840116151156,-14.3824415206909,0.9445481300354
572,-12.2624926277738,-14.7695264816284,-0.0553140863776207,-20.4801051746536,-14.4391212463379,1.05074751377106
573,-17.9906536978604,-14.8363914489746,0.082812674343586,-11.9780044546933,-14.4390821456909,1.26704049110413
574,-19.992867725442,-14.8631286621094,0.0698177814483643,-21.4444497503231,-14.4888038635254,1.35656630992889
575,-17.2395910946425,-14.8590202331543,-0.0956164598464966,-17.9933579172552,-14.5205240249634,1.26844215393066
576,-12.9014798799853,-14.8526678085327,-0.456550538539886,-15.9884396702788,-14.501051902771,0.983821332454681
577,-7.97087218013526,-14.7858514785767,-0.52297580242157,-11.9813073957208,-14.5132970809937,0.834773004055023
578,-17.9888128873426,-14.7812204360962,-0.249549567699432,-18.4546401364792,-14.5329170227051,0.848379492759705
579,-15.9911438896736,-14.7945737838745,-0.166938781738281,-21.9977859724184,-14.5863313674927,0.810674786567688
580,-17.9933579172552,-14.7945737838745,-0.229715973138809,-12.54851535432,-14.5943746566772,0.622273743152618
581,-16.3983423409312,-14.7705926895142,-0.49690181016922,-15.297752122448,-14.5980472564697,0.69062602519989
582,-13.9862256426972,-14.7972717285156,-0.563513994216919,-13.9911438896736,-14.584698677063,0.850267112255096
583,-15.7717241321232,-14.765061378479,-0.317133605480194,-16.3880383315189,-14.5837812423706,1.00078511238098
584,-16.1894705981138,-14.7324447631836,-0.1945920586586,-7.68575171954717,-14.485294342041,1.14047956466675
585,-18.6149223992848,-14.7934274673462,-0.591736257076263,-17.0334271877708,-14.4837341308594,1.12827122211456
586,-17.411833544846,-14.8563261032104,-0.843239724636078,-15.3586394358006,-14.4929008483887,1.00862526893616
587,-20.6669624329629,-14.927547454834,-0.69805645942688,-18.2079238928465,-14.5210123062134,0.894505977630615
588,-12.1877153188193,-14.9022083282471,-0.752142548561096,-8.96106504143386,-14.5142517089844,-0.229384228587151
589,-11.9813073957208,-14.8970251083374,-0.342946767807007,-12.5299149630855,-14.5095834732056,-1.10109615325928
590,4.12545865131038,-14.7836036682129,0.0965729057788849,-9.95703766559124,-14.5054903030396,1.19879078865051
591,-15.9911438896736,-14.8236656188965,0.648921489715576,-9.98179758753398,-14.5055294036865,1.38502752780914
592,-9.97958355995238,-14.8402166366577,-0.00499129295349121,-20.8418473172787,-14.5111722946167,1.48570144176483
593,-16.2746850234386,-14.8384523391724,-0.290908724069595,-14.4706977930193,-14.5231952667236,1.4578572511673
594,-16.1346385006881,-14.8371391296387,-0.26092129945755,-20.7881893628689,-14.5487174987793,1.41798400878906
595,-10.4352498865711,-14.7734050750732,-0.302327126264572,-17.9906536978604,-14.5559864044189,1.1711962223053
596,-15.9723911281532,-14.7904853820801,-0.375920027494431,-21.9977859724184,-14.5805549621582,0.933814346790314
597,-19.9955719448368,-14.807297706604,-0.49003192782402,-11.5705039997558,-14.5594758987427,0.964228272438049
598,-24,-14.8713998794556,-0.70637720823288,-12.3692396292379,-14.5771741867065,0.0459152460098267
599,-1.96152587799564,-14.777871131897,-0.750471234321594,-15.9884396702788,-14.6172590255737,1.04973149299622
600,-13.9884396702788,-14.7378225326538,-0.278322160243988,-20.0583991699677,-14.6577234268188,1.16938424110413
601,-18.7021208038531,-14.7158498764038,0.678196549415588,-13.4501431684704,-14.6941776275635,1.21469485759735
602,-12.974104430576,-14.7225093841553,0.34914568066597,-10.7294661605701,-14.699143409729,1.08516359329224
603,-16.6526823512121,-14.7395086288452,0.41092923283577,-15.3120067851689,-14.6812677383423,1.06607818603516
604,-13.9824325098565,-14.726279258728,0.377145290374756,-17.9933579172552,-14.7001190185547,1.13239181041718
605,-9.53958355995237,-14.6606998443604,0.530661106109619,-14.3380207711829,-14.6791830062866,1.04420113563538
606,-9.97308620771686,-14.6132583618164,0.636783480644226,-9.97579042711168,-14.6698694229126,0.972069025039673
607,-14.556110852304,-14.5920639038086,0.37236550450325,-14.7576131361133,-14.6428060531616,1.1703736782074
608,-15.5816613273445,-14.5759859085083,0.166582018136978,-21.2750254017905,-14.678017616272,0.494505822658539
609,-18.6015668724791,-14.5733594894409,-0.148756235837936,-14.9143029964203,-14.6853742599487,1.13038420677185
610,-11.2731272613741,-14.5176753997803,-0.170970141887665,-17.1925213029318,-14.6818361282349,-0.0965256690979004
611,-15.013084451464,-14.5512762069702,0.278843015432358,-13.7644936122882,-14.6402959823608,1.05757749080658
612,-12.6955931100065,-14.5226383209229,0.425851225852966,-11.0492766839073,-14.6007013320923,0.896145701408386
613,-14.623480544658,-14.5669708251953,0.245490252971649,-12.7950491721089,-14.6060905456543,0.80865216255188
614,-10.2820741457524,-14.5466337203979,0.221248865127563,-13.3038649270271,-14.567702293396,0.808950126171112
615,-12.9948419400253,-14.5626888275146,0.497040748596191,-12.6661390598922,-14.5833463668823,0.903561890125275
616,-10.3941403611457,-14.5674428939819,-0.127447485923767,-17.9933579172552,-14.6414680480957,1.07755482196808
617,-14.9434753166374,-14.5822668075562,-0.138023763895035,-13.6404450136071,-14.6258010864258,1.13845789432526
618,-11.9780044546933,-14.5558662414551,0.68411922454834,-5.97136237194847,-14.5743112564087,1.13790988922119
619,-12.3741578762143,-14.5224285125732,0.238383829593658,-9.02401738769561,-14.5329399108887,1.29623401165009
620,-11.9840116151156,-14.5203742980957,0.333726465702057,-3.96265099213136,-14.4640588760376,1.47162175178528
621,-7.98179758753398,-14.4623403549194,0.770776987075806,-15.9884396702788,-14.4487276077271,1.50774323940277
622,-8.28100305189777,-14.3982782363892,0.617987155914307,-15.5043937796178,-14.4517736434937,1.47424077987671
623,-14.8174277846005,-14.3710908889771,0.407788842916489,-13.9640780602983,-14.4584426879883,1.40362989902496
624,-7.97909336813917,-14.3043279647827,0.713582694530487,-5.96132099024515,-14.4049434661865,1.40372002124786
625,-15.9884396702788,-14.3710689544678,0.354556143283844,-19.5747532660924,-14.4555139541626,1.48541128635406
626,-14.4810428795726,-14.3585071563721,-0.0505099892616272,-15.2133661118958,-14.4472522735596,1.03386187553406
627,-19.9955719448368,-14.3842658996582,-0.24259877204895,-20.0671866033332,-14.5164489746094,-1.08000409603119
628,-13.5542121881815,-14.3527393341064,0.0120636820793152,-14.4731705497711,-14.5268421173096,0.937464594841003
629,-11.6884502528636,-14.3285999298096,-0.461490601301193,-14.7326542141258,-14.5127573013306,-0.919569373130798
630,-14.3920227441465,-14.3823890686035,0.634279847145081,-14.4789792658856,-14.4849834442139,1.0117574930191
631,-9.98179758753398,-14.3367557525635,0.566951215267181,-11.9753002352985,-14.4625654220581,1.11835193634033
632,-18.4530065994126,-14.3516731262207,-0.815272629261017,-14.752709389651,-14.4819631576538,1.314612865448
633,-16.5714905177364,-14.3288459777832,-0.556061983108521,-14.1464482870122,-14.4606904983521,1.44626784324646
634,-18.1454047008809,-14.3699417114258,-0.716193318367004,-17.9906536978604,-14.4740200042725,0.96803492307663
635,-18.6355147800003,-14.3553714752197,-0.458457380533218,-12.6332681800345,-14.4348468780518,0.834312856197357
636,-14.5590116151156,-14.3725557327271,-0.342024862766266,-17.9846465374381,-14.4481382369995,0.925754845142365
637,-13.9862256426972,-14.3458595275879,-0.80097621679306,-8.6612275100845,-14.4794759750366,-0.397436290979385
638,-11.7921774802887,-14.3341150283813,-0.272135943174362,-10.5145078679078,-14.4590930938721,1.03004026412964
639,-16.2809762785055,-14.3642997741699,-0.496451944112778,-19.9955719448368,-14.472373008728,1.15371906757355
640,-10.8621221024032,-14.3411684036255,-0.500620543956757,-10.8721634841065,-14.4402160644531,1.137610912323
641,-17.9933579172552,-14.3545169830322,-0.41607266664505,-16.1138432761767,-14.5079002380371,1.14609575271606
642,-12.6738869010211,-14.3992023468018,-0.23388397693634,-14.9473563847467,-14.5409898757935,-0.0353451371192932
643,-16.0610128853068,-14.3996677398682,-0.11412401497364,-13.1368722877002,-14.5165710449219,1.09682834148407
644,-17.992867725442,-14.4392852783203,-0.197080239653587,-11.4757317103624,-14.4735774993896,1.03599381446838
645,-8.20164141090449,-14.3564405441284,-0.115632019937038,-17.9906536978604,-14.5269546508789,1.1663339138031
646,-14.5703252109292,-14.3603515625,0.133396819233894,-17.9846465374381,-14.5568590164185,1.11960804462433
647,-18.1769737364642,-14.365478515625,0.264914959669113,-17.6692306307308,-14.577428817749,0.897060573101044
648,-12.9347129946221,-14.3451061248779,0.175654575228691,-16.4549993113603,-14.6197414398193,0.593389570713043
649,-13.4058775111571,-14.3447914123535,0.0468143485486507,-16.3564133507514,-14.6398811340332,0.493113577365875
650,-9.97308620771686,-14.3663196563721,0.0553075224161148,-13.0811977097363,-14.6058855056763,0.612302124500275
651,-12.4336883481017,-14.3692836761475,0.151834547519684,-14.0603584335206,-14.5930318832397,0.793932020664215
652,-17.9933579172552,-14.3691473007202,0.241117358207703,-12.2373886418471,-14.6127443313599,0.946403682231903
653,-15.7618353987947,-14.4442548751831,0.247089818120003,-10.5562380337938,-14.6166343688965,0.946980595588684
654,-16.2632934714484,-14.4803218841553,0.185551345348358,-19.9955719448368,-14.6228904724121,0.880675613880157
655,-13.1445268009983,-14.430212020874,0.10353510081768,-17.220099901939,-14.6139059066772,0.841893196105957
656,-11.9862256426972,-14.4133386611938,0.18308287858963,-5.96083079843194,-14.5543241500854,1.029141664505
657,-14.2832455179866,-14.3828544616699,0.484157174825668,-19.992867725442,-14.6028413772583,1.24099361896515
658,-17.1348673512175,-14.4023113250732,0.640814185142517,-22.658163330909,-14.6256217956543,1.10888719558716
659,-12.9362256426972,-14.4151401519775,0.678898811340332,-14.6862256426972,-14.640380859375,0.670299589633942
660,-15.1212905777621,-14.3875226974487,0.631928443908691,-10.6806686276563,-14.5819902420044,0.182685971260071
661,-14.8892485228463,-14.3931083679199,0.529642164707184,-11.2202487387388,-14.5327796936035,0.596005380153656
662,-8.86940973286341,-14.3723278045654,0.312692135572433,-17.9933579172552,-14.5564880371094,0.590520322322845
663,-7.18620612194847,-14.327600479126,0.407483041286469,-19.9955719448368,-14.5864744186401,0.600659012794495
664,-13.2160409760392,-14.3580904006958,0.439989656209946,-17.0621315439946,-14.5751256942749,0.77613240480423
665,-16.3885238023373,-14.361065864563,0.546476721763611,-12.1499504797444,-14.5488996505737,0.885955214500427
666,-15.9884396702788,-14.3560905456543,0.571301519870758,-7.46088031805711,-14.5093145370483,0.948894202709198
667,-15.9906536978604,-14.3409290313721,0.484904378652573,-19.9955719448368,-14.5530519485474,0.892882108688354
668,-12.9128505664264,-14.3143749237061,0.506844520568848,-11.4184685439545,-14.49587059021,0.818170130252838
669,-16.4410712492262,-14.3173923492432,0.515177547931671,-13.7257719673552,-14.494119644165,0.799672424793243
670,-11.9840116151156,-14.2877864837646,0.547040343284607,-7.97687934055757,-14.4584112167358,0.971601963043213
671,-17.9933579172552,-14.3144998550415,0.665529072284698,-17.2433416310631,-14.5335531234741,1.28115785121918
672,-17.3686930378986,-14.2942190170288,0.416357845067978,-19.1591108188314,-14.5503387451172,1.39903330802917
673,-20.2295456290708,-14.322509765625,0.076385460793972,-11.4737721931949,-14.5335712432861,1.3137526512146
674,-11.4930110285053,-14.2729072570801,0.0920410975813866,-14.8894997409502,-14.5403909683228,1.33269190788269
675,-20.7434711045007,-14.4115934371948,-1.01825284957886,-15.2410307024281,-14.5887699127197,1.40407824516296
676,-11.9840116151156,-14.3658170700073,0.323660761117935,-13.9862256426972,-14.5797672271729,1.35441088676453
677,-19.9955719448368,-14.3758573532104,0.261763215065002,-14.5331644182074,-14.6224660873413,1.31970322132111
678,-22.6512743445114,-14.4737091064453,0.568248748779297,-21.9977859724184,-14.7293119430542,1.25730276107788
679,-13.9862256426972,-14.4820966720581,0.493437767028809,-12.6776249254195,-14.6973571777344,1.02218496799469
680,-16.9246987069493,-14.5333738327026,0.147239714860916,-7.56264989389963,-14.6441955566406,0.965178370475769
681,-11.7118038496215,-14.5287466049194,0.622319400310516,-14.2437187432385,-14.6573905944824,1.14515101909637
682,-12.4230251871318,-14.536301612854,0.703608214855194,-16.5964608630887,-14.6793966293335,1.18026947975159
683,-12.0204136768852,-14.5206298828125,0.780112862586975,-13.2768239332955,-14.6566925048828,1.00711572170258
684,-9.98179758753398,-14.5132827758789,0.857657432556152,-16.6368837999875,-14.647665977478,0.834722936153412
685,-16.1548865797321,-14.4851055145264,0.844192564487457,-13.9884396702788,-14.6076192855835,0.799066841602325
686,-16.8711438896736,-14.4928503036499,0.684214293956757,-17.7990722029695,-14.6458072662354,0.736387729644775
687,-7.97357639953007,-14.4722166061401,0.544374287128448,-7.97687934055756,-14.6354789733887,0.787841022014618
688,-14.5082382213135,-14.5024328231812,0.702533364295959,-6.71993710520254,-14.5736722946167,1.09583795070648
689,-14.3222697174882,-14.5046730041504,0.841927289962769,-18.920510235136,-14.6065654754639,1.22269070148468
690,-5.96132099024515,-14.5046091079712,0.837335228919983,-9.97909336813917,-14.6067543029785,1.07411253452301
691,-10.9287120759451,-14.4816255569458,0.93374639749527,-16.3481966269326,-14.6247005462646,1.12676548957825
692,-11.5003288893747,-14.5035095214844,0.899058520793915,-18.215649164914,-14.660325050354,0.115858800709248
693,-13.988929862092,-14.5216989517212,0.924188017845154,-17.9906536978604,-14.7118492126465,0.779973924160004
694,-16.3177432162729,-14.4971990585327,0.209484815597534,-17.7935517428166,-14.7047204971313,0.861762523651123
695,-17.533629174652,-14.4905939102173,0.0185908675193787,-11.6940805067383,-14.6760578155518,0.978744506835938
696,-8.32610301265647,-14.4197263717651,0.910647630691528,-16.6333164136353,-14.7152080535889,0.90716016292572
697,-15.9933579172552,-14.3930635452271,-0.00331151485443115,-19.9955719448368,-14.7329149246216,-0.785292148590088
698,-5.96265099213136,-14.326192855835,0.757639646530151,-13.9862256426972,-14.7195672988892,0.934628307819366
699,-7.97958355995238,-14.2530078887939,0.901807546615601,-9.97909336813917,-14.729700088501,1.16241371631622
700,-16.0417056874264,-14.2605972290039,1.01190519332886,-12.4840116151156,-14.6774816513062,1.34047985076904
701,-22.6756571208778,-14.3585739135742,0.912931561470032,-19.646018981681,-14.7285623550415,1.1986837387085
702,-13.1262256426972,-14.3882684707642,0.787515819072723,-10.7213073957208,-14.6718502044678,0.658030450344086
703,-14.035713487823,-14.4153337478638,0.73579216003418,-13.1036748988379,-14.6526184082031,0.31796270608902
704,-21.9977859724184,-14.4169206619263,0.158382952213287,-16.2215360465363,-14.6447896957397,0.297639638185501
705,-10.7995908570806,-14.3960933685303,0.506820023059845,-19.992867725442,-14.6734085083008,0.306053876876831
706,-13.985735450884,-14.4051856994629,0.625802040100098,-16.9136245098286,-14.6856527328491,0.268351435661316
707,-11.3982384682552,-14.343957901001,0.675098240375519,-13.9775142628801,-14.6518640518188,0.138520374894142
708,-13.9835214233024,-14.325647354126,0.814830839633942,-15.9906536978604,-14.6469478607178,0.333930015563965
709,-15.9911438896736,-14.3022651672363,0.915948510169983,-8.63980068887217,-14.5973844528198,0.610562264919281
710,-19.2214947993845,-14.3014192581177,0.957901954650879,-20.9119217547227,-14.626296043396,0.772124648094177
711,-24,-14.3630790710449,-0.748766303062439,-19.7706455032198,-14.6565914154053,0.788735330104828
712,-18.8740249835108,-14.3956642150879,-0.917161047458649,-19.1591037736088,-14.6510152816772,-0.194483503699303
713,-18.1098627716241,-14.3964405059814,0.843417406082153,-20.9761544691086,-14.7502307891846,0.839105069637299
714,-20.6864810357459,-14.4544763565063,0.715821087360382,-19.992867725442,-14.801513671875,0.945810377597809
715,-14.3467272100953,-14.4147977828979,0.68234920501709,-15.0265474169509,-14.8320379257202,0.986657917499542
716,-19.9955719448368,-14.4099140167236,0.728115320205688,-7.97687934055757,-14.7952880859375,1.01683759689331
717,-16.9105708178198,-14.4244689941406,0.587776005268097,-15.9884396702788,-14.7868309020996,-0.768736839294434
718,-14.7699291902927,-14.3983592987061,-0.580741167068481,-5.89132059732775,-14.7114944458008,1.18766462802887
719,-10.8765344296392,-14.388219833374,-0.01780766248703,-14.5503333708639,-14.7300405502319,0.985868811607361
720,-22.4755637501962,-14.4314680099487,0.498247563838959,-16.7674319913293,-14.7627458572388,0.755561888217926
721,-18.6837344862929,-14.4761161804199,0.745688796043396,-16.8865413792133,-14.7954292297363,0.673820912837982
722,-14.6198525553588,-14.4918327331543,0.717831432819366,-18.9754113663397,-14.7853975296021,0.638888418674469
723,-12.3246871811587,-14.4540596008301,0.763680756092072,-15.2477641042356,-14.8071975708008,0.331178069114685
724,-18.3633880367908,-14.4431962966919,0.521345257759094,-15.2590448046207,-14.7659606933594,0.0839185044169426
725,-19.2232748147621,-14.4564208984375,-0.586015582084656,-19.2725802550861,-14.774489402771,-0.00633626943454146
726,-19.9955719448368,-14.5037145614624,0.779449164867401,-4.83273274515494,-14.7001171112061,0.208078280091286
727,-10.364578416735,-14.5196723937988,0.824293434619904,-9.44063182967763,-14.683180809021,0.53256219625473
728,-14.4880382996115,-14.4963350296021,0.869215726852417,-10.1144463977243,-14.6275777816772,0.595335006713867
729,-5.94856622712376,-14.4293851852417,0.932806372642517,-5.97196109358115,-14.5207386016846,0.696267247200012
730,-10.753035108978,-14.3811168670654,0.912850201129913,-18.785533956375,-14.5623197555542,1.01018345355988
731,-16.4121515686231,-14.3812074661255,0.275978147983551,-19.9955719448368,-14.5936374664307,0.748872518539429
732,-12.3035176511742,-14.3699903488159,0.107393220067024,-19.1135925213608,-14.6277866363525,0.225672006607056
733,-9.98450180692879,-14.3314075469971,0.371032297611237,-5.96816796074045,-14.5583200454712,0.218459159135818
734,-13.9824325098565,-14.3166942596436,0.694584250450134,-19.6408399316437,-14.6380205154419,0.640190005302429
735,-5.97466531297596,-14.2324266433716,0.871932208538055,-3.96324971376404,-14.5508890151978,0.896032452583313
736,-11.9840116151156,-14.1962404251099,0.948477566242218,-17.9933579172552,-14.5684518814087,1.05331182479858
737,-16.9103358088655,-14.1711978912354,0.932553172111511,-5.96083079843194,-14.4868049621582,1.17132318019867
738,-10.2410214684491,-14.1582193374634,-0.638017058372498,-14.7966831590371,-14.525710105896,1.06683349609375
739,-21.9977859724184,-14.2249937057495,-0.0813630819320679,-14.4900371143682,-14.5387773513794,0.812674820423126
740,-15.597004085811,-14.3564777374268,0.870408475399017,-12.7916148642541,-14.557674407959,0.690919280052185
741,-11.7568989270551,-14.3282489776611,0.660510420799255,-18.0134584197678,-14.6112194061279,0.747408330440521
742,-10.436797587534,-14.331298828125,0.886896789073944,-12.2840116151156,-14.5541667938232,0.7361701130867
743,-16.1872054219983,-14.330714225769,0.909510493278503,-16.0497645793288,-14.5646944046021,0.68730503320694
744,-18.4843359897806,-14.3463802337646,0.206882953643799,-12.4730862077169,-14.509259223938,0.689057886600494
745,-15.9884396702788,-14.3834018707275,0.326694786548615,-10.0751385658793,-14.4564895629883,0.81538313627243
746,-13.9911438896736,-14.370192527771,0.9299076795578,-9.98179758753398,-14.3763818740845,0.930103659629822
747,-10.2626762170135,-14.3053073883057,0.959151148796082,-14.2648902445951,-14.3943452835083,0.992079496383667
748,-16.7976269494307,-14.2572917938232,0.00375199317932129,-10.5890812473109,-14.3824768066406,1.04226279258728
749,-14.3644639846661,-14.3399772644043,0.507735550403595,-20.1665564007953,-14.4103317260742,1.07893681526184
750,-20.1285506682411,-14.3809118270874,-0.456298410892487,-10.4438755334947,-14.3462333679199,1.0559389591217
751,-10.7370551515787,-14.3278112411499,0.461124360561371,-16.2395515329857,-14.3648309707642,0.830678999423981
752,-15.1213607778323,-14.3421258926392,0.627158761024475,-16.8289817275114,-14.4054946899414,0.613136827945709
753,-9.98179758753398,-14.2976531982422,0.756750583648682,-11.9867158345104,-14.3833255767822,0.584053516387939
754,-13.9862256426972,-14.2976789474487,-0.825667381286621,-11.9840116151156,-14.34326171875,1.56048941612244
755,-14.1246366151156,-14.3282451629639,-0.0890553593635559,-16.1603146702788,-14.3554105758667,1.22212159633636
756,-14.9986385999561,-14.3617477416992,0.795690894126892,-10.4720249716255,-14.3587188720703,0.76355391740799
757,-5.97736953237078,-14.3045568466187,0.790588557720184,-15.9911438896736,-14.366943359375,0.916615962982178
758,-17.9933579172552,-14.3206348419189,0.789910435676575,-17.9906536978604,-14.3450469970703,0.934732437133789
759,-8.78013377270626,-14.2551593780518,0.826664745807648,-17.9906536978604,-14.3655567169189,0.872442245483398
760,-9.97308620771686,-14.2464904785156,0.841850519180298,-3.96595393315885,-14.277379989624,1.07245445251465
761,-20.7384596649886,-14.2846612930298,-0.292656600475311,-13.2386050032761,-14.2738733291626,1.12258183956146
762,-19.9955719448368,-14.333327293396,-0.472333490848541,-8.82350376316846,-14.2590351104736,1.23414433002472
763,-17.4448712055485,-14.3521366119385,0.43137115240097,-21.5017960112268,-14.3170804977417,1.15413188934326
764,-17.9933579172552,-14.4035453796387,0.20605593919754,-15.259197098978,-14.3301153182983,1.1805157661438
765,-12.420790524345,-14.3997182846069,0.778565883636475,-16.8468652827084,-14.3579883575439,1.19909381866455
766,-1.95773274515494,-14.3434762954712,0.799623012542725,-17.9933579172552,-14.3579883575439,1.10452568531036
767,-7.96816796074045,-14.2969722747803,0.847669124603271,-5.97958355995238,-14.3069152832031,1.1822497844696
768,-14.0497376396736,-14.3107843399048,0.799269199371338,-12.8316678651156,-14.3526496887207,1.33452725410461
769,-16.1161438896736,-14.335732460022,0.77378636598587,-11.0774612418746,-14.3663396835327,1.24860727787018
770,-16.7347372276,-14.3674039840698,0.778648555278778,-11.0653002646909,-14.4136896133423,1.14894223213196
771,-13.9723837081388,-14.4073400497437,-0.12353527545929,-16.1689482715038,-14.4148941040039,2.74835872650146
772,-17.9955719448368,-14.4721040725708,0.30463582277298,-16.2053923012094,-14.4195671081543,1.03715097904205
773,-18.4108315277851,-14.4960594177246,0.750992000102997,-17.4513731844308,-14.4428157806396,1.06441593170166
774,-17.1929376116467,-14.5574836730957,0.634798884391785,-16.3606369796958,-14.5121450424194,1.09102201461792
775,-3.96974706599955,-14.4773597717285,0.785245835781097,-11.9813073957208,-14.461522102356,1.03862845897675
776,-17.0761589685244,-14.4946613311768,0.950622260570526,-14.5147554597525,-14.4568653106689,0.987890601158142
777,-12.0061878314364,-14.4413995742798,0.811258435249329,-16.2838268165029,-14.4316425323486,1.12331867218018
778,-8.86650080962534,-14.4101476669312,0.716918766498566,-18.7857076440312,-14.460391998291,1.20505607128143
779,-14.7764695451362,-14.4307355880737,0.782265484333038,-4.96220499602018,-14.3952569961548,1.21464395523071
780,-16.1081579801379,-14.4421758651733,0.714403808116913,-16.6764565088045,-14.4099054336548,1.16538155078888
781,-17.375759274289,-14.4914684295654,0.889011979103088,-14.5503282067997,-14.4270715713501,1.03437483310699
782,-7.51219097863862,-14.4185304641724,-0.0233498811721802,-18.918645273577,-14.4548435211182,0.288632988929749
783,-11.2904386625915,-14.3833236694336,1.14672899246216,-11.2955981882924,-14.4358396530151,0.884829938411713
784,-9.43442616718786,-14.3252506256104,0.530008792877197,-19.9955719448368,-14.4492053985596,0.921753168106079
785,-11.429336960845,-14.2772102355957,0.342724502086639,-16.3363650941261,-14.4738931655884,0.808314681053162
786,-18.2705450022082,-14.3019533157349,0.502789497375488,-10.0012668482058,-14.4206705093384,0.683345913887024
787,-14.1416310481026,-14.3029880523682,0.367997676134109,-16.1622768361741,-14.4706773757935,0.721703886985779
788,-15.0460528390031,-14.3246812820435,0.369709432125092,-18.9977859724184,-14.5272331237793,0.757496058940887
789,-9.47090591447972,-14.2792806625366,0.453855067491531,-17.005889245576,-14.5073013305664,0.717231273651123
790,-11.9943322341132,-14.2868280410767,-0.643188714981079,-11.9780044546933,-14.5146741867065,-0.537837982177734
791,-15.0755113569829,-14.2673759460449,0.636257290840149,-5.15750791503925,-14.441632270813,0.768829882144928
792,-10.2105309521322,-14.2509536743164,0.617906928062439,-9.97579042711167,-14.4084882736206,1.10054314136505
793,-11.9840116151156,-14.2237730026245,0.792069852352142,-9.97909336813917,-14.3874368667603,1.23144924640656
794,-12.9820080413428,-14.1903676986694,0.734986841678619,-17.1283009969055,-14.4251203536987,1.21794188022614
795,-20.2854744149919,-14.2709274291992,0.55666309595108,-21.9977859724184,-14.4518346786499,1.27805781364441
796,-14.68811243515,-14.2717123031616,0.0117951929569244,-19.2197730115948,-14.4600687026978,1.23584425449371
797,-9.96574904540835,-14.2169713973999,0.47379657626152,-5.95861677085034,-14.3819971084595,1.1835550069809
798,-11.7563029909336,-14.2091150283813,0.690498411655426,-7.96083079843194,-14.3253698348999,1.31254708766937
799,-15.0349068735862,-14.2199754714966,-0.807815730571747,-14.0985487750311,-14.3103170394897,-0.713113188743591
800,-11.0733514027214,-14.2273111343384,0.611335098743439,-14.9960219384541,-14.3230829238892,1.31606018543243
801,-9.98179758753398,-14.2109632492065,0.31236070394516,-9.97530023529847,-14.2958498001099,1.28981411457062
802,-14.7879877572346,-14.1895942687988,0.377645224332809,-10.1690108727277,-14.2820606231689,1.32601594924927
803,-13.0606490827924,-14.1715869903564,0.623104870319366,-8.57639199284083,-14.2688608169556,1.27568411827087
804,-11.2433960609145,-14.1381196975708,0.668777287006378,-13.6346031584541,-14.2264547348022,1.16421830654144
805,-11.9867158345104,-14.1304016113281,0.579182803630829,-15.985735450884,-14.218225479126,1.10080790519714
806,-4.86177968871,-14.0829048156738,-0.555581867694855,-12.3848161676506,-14.2610511779785,0.839154958724976
807,-5.94586200772895,-14.027322769165,0.514213681221008,-9.97530023529847,-14.1942672729492,1.38575863838196
808,-16.3754414103348,-14.0222606658936,0.663762509822845,-10.1864909539586,-14.111123085022,1.49724519252777
809,-20.5968377676216,-14.0733318328857,-0.465167224407196,-8.32167766535286,-14.0686950683594,0.200297832489014
810,-14.6294544376564,-14.0700521469116,-0.91211462020874,-7.45313421249749,-14.0471773147583,1.1949747800827
811,-12.2843907803119,-14.0526876449585,-0.126876890659332,-17.9933579172552,-14.0923309326172,-0.301151812076569
812,-5.97687934055756,-14.0334033966064,0.56588739156723,-13.9884396702788,-14.0656318664551,1.374760389328
813,-10.3718016930244,-14.0546407699585,0.744899451732635,-16.7018127277508,-14.0436716079712,1.39516198635101
814,-9.97909336813917,-14.0330600738525,-0.228891849517822,-12.6096022660738,-14.0139894485474,0.00852647423744202
815,-18.7310005028065,-14.0486764907837,0.751676857471466,-15.3664537795793,-14.0354328155518,1.19361138343811
816,-11.988929862092,-14.0220136642456,0.44860053062439,-17.9933579172552,-14.1056489944458,1.2016327381134
817,-13.988929862092,-14.0086688995361,0.350851207971573,-9.97909336813917,-14.0388736724854,1.2919020652771
818,-18.7064013955161,-14.0472936630249,-0.898098766803741,-13.244881180333,-14.0510482788086,1.44251298904419
819,-13.9982738354683,-14.0310077667236,0.585833430290222,-13.9862256426972,-14.0527849197388,1.44990038871765
820,-15.3241253928182,-14.0532751083374,-0.353201270103455,-11.9840116151156,-14.0794982910156,-1.33843994140625
821,-7.98228777934719,-13.9865350723267,0.684645652770996,-5.97417512116276,-14.0043716430664,1.16460883617401
822,-16.4500479992626,-13.9804105758667,0.641341984272003,-8.70374889246403,-13.9346675872803,1.37140798568726
823,-17.4829471683621,-13.9621000289917,0.562507688999176,-8.43210260115949,-13.9143915176392,1.39825463294983
824,-14.0193696794578,-13.9789419174194,-0.361298382282257,-15.5060127727833,-13.9185009002686,1.21856594085693
825,-1.94547733587002,-13.8536214828491,0.626781523227692,-3.97245128539436,-13.8433771133423,1.244673371315
826,-5.96265099213136,-13.8134794235229,0.798040390014648,-9.97579042711167,-13.8166408538818,1.53864884376526
827,-19.6586378875837,-13.8112325668335,0.565974831581116,-18.4343071227024,-13.8426485061646,1.64992809295654
828,-17.9933579172552,-13.7801809310913,1.16144919395447,-18.566752412668,-13.8197755813599,1.24339699745178
829,-8.86058546632186,-13.7460088729858,-0.201214015483856,-12.5173449484489,-13.8187074661255,0.0939552187919617
830,-16.515588334118,-13.7432832717896,0.785542666912079,-14.1755965287587,-13.86279296875,1.58150482177734
831,-9.97308620771686,-13.7316913604736,0.783331871032715,-3.95640274326874,-13.79421043396,1.60547268390656
832,-5.19630042897642,-13.6835126876831,0.795760273933411,-13.9911438896736,-13.7768421173096,1.64527273178101
833,-12.9920889617355,-13.6899900436401,0.724800109863281,-16.8972471760586,-13.8009786605835,1.6262868642807
834,-16.8790749241563,-13.7359714508057,0.624718248844147,-12.7044471034713,-13.7747621536255,1.53943574428558
835,-14.3057998776237,-13.7236442565918,0.46857613325119,-15.9933579172552,-13.7881278991699,1.40637421607971
836,-12.9257591879311,-13.6973419189453,-0.790450036525726,-24,-13.8294677734375,-0.551085948944092
837,-5.97136237194847,-13.6839942932129,0.55909675359726,-3.96595393315885,-13.8027276992798,1.30133867263794
838,-7.93985484730665,-13.6402053833008,0.739596784114838,-16.5585596200107,-13.8683185577393,1.49367916584015
839,-9.97909336813917,-13.6112499237061,0.710578441619873,-9.98450180692879,-13.8087453842163,6.32985877990723
840,-12.4944223640087,-13.654803276062,0.467103362083435,-15.2211983202928,-13.843692779541,1.47524309158325
841,-8.8306208371562,-13.6408166885376,0.305130362510681,-5.86850181033915,-13.7738285064697,1.42687749862671
842,-15.9884396702788,-13.6707372665405,-0.15675076842308,-16.5319602162042,-13.7626037597656,1.53311419487
843,-11.988929862092,-13.6574039459229,-0.11136869341135,-5.96865815255366,-13.6824579238892,1.50818264484406
844,-5.93764081972504,-13.5882043838501,0.269227683544159,-9.98130739572077,-13.6303739547729,1.60874950885773
845,-19.0941982533896,-13.5986080169678,0.652173519134521,-17.3875993341443,-13.6683301925659,1.6094833612442
846,-12.2453311873665,-13.6247358322144,0.55664336681366,-18.3982122088632,-13.6800975799561,1.30744755268097
847,-13.3206129223051,-13.6069164276123,0.163682281970978,-14.8950137018787,-13.6460933685303,0.999837100505829
848,-14.3248594233652,-13.6626663208008,0.0685886815190315,-12.4805429950042,-13.6360559463501,0.578046560287476
849,-8.83248088677262,-13.6683511734009,-0.0185417626053095,-15.7318846304143,-13.6744079589844,0.330188930034637
850,-16.6030194015013,-13.6720933914185,-0.0232779197394848,-15.9933579172552,-13.6978025436401,0.383194178342819
851,-11.9802184822749,-13.6007890701294,0.121779672801495,-12.5676532663473,-13.65061378479,0.516863822937012
852,-16.1880550865848,-13.6212024688721,0.252886414527893,-19.992867725442,-13.7124252319336,0.396400630474091
853,-14.9246420649846,-13.6271286010742,0.380169481039047,-16.6978887577088,-13.7363862991333,0.139281079173088
854,-9.45601644506224,-13.5435171127319,0.473145693540573,-22.7208628954953,-13.7797155380249,-0.14379571378231
855,-17.9906536978604,-13.591456413269,0.353923708200455,-10.7716859607318,-13.718240737915,-0.11158362030983
856,-3.97736953237077,-13.5247344970703,0.378819137811661,-15.9933579172552,-13.7121057510376,-0.207361996173859
857,-12.7137187404076,-13.5335054397583,0.559152722358704,-18.1085108407175,-13.7396450042725,0.11606914550066
858,-16.7846221505432,-13.5521793365479,0.470837086439133,-9.97308620771686,-13.6995277404785,0.312349379062653
859,-15.9906536978604,-13.5521764755249,0.431269496679306,-7.97087218013526,-13.695068359375,0.646525919437408
860,-7.05426970819387,-13.4710607528687,0.559981882572174,-20.1590334832983,-13.6900491714478,1.04757833480835
861,-16.4739250733251,-13.4208869934082,0.663701832294464,-16.3230121609851,-13.6670637130737,0.998558580875397
862,-13.988929862092,-13.3883199691772,0.697001039981842,-19.9977859724184,-13.6726560592651,0.615310311317444
863,-7.97087218013526,-13.320725440979,25.0783939361572,-3.97466531297596,-13.5593128204346,0.495519250631332
864,-12.6203752514792,-13.2669525146484,0.856259703636169,-13.9802184822749,-13.5192289352417,0.722880899906158
865,-14.504500796348,-13.2680034637451,0.730761468410492,-17.9906536978604,-13.5389890670776,0.812985002994537
866,-20.3232297594006,-13.270188331604,0.192377597093582,-22.2048865641344,-13.633843421936,0.623237311840057
867,-11.9867158345104,-13.2373628616333,-0.195049419999123,-9.98450180692879,-13.5938167572021,0.529153227806091
868,-14.8177334850493,-13.2376823425293,-0.0617658160626888,-15.7745668379088,-13.6597051620483,0.639571189880371
869,-10.9121429524311,-13.2379179000854,0.0234279986470938,-17.9955719448368,-13.6826725006104,0.692586898803711
870,-9.97579042711167,-13.1545877456665,0.191965788602829,-11.9862256426972,-13.6507987976074,0.625434875488281
871,-18.1732334419124,-13.1511840820312,0.371380060911179,-14.2255218046596,-13.6330585479736,0.75218540430069
872,-15.9911438896736,-13.1603260040283,0.397146940231323,-7.97909336813917,-13.5597496032715,1.68211317062378
873,-9.95299428228696,-13.1445150375366,-0.543231964111328,-10.3630448260135,-13.5271844863892,1.13591587543488
874,-15.3126872980337,-13.1241760253906,0.626070916652679,-21.9977859724184,-13.5721092224121,1.22186863422394
875,-16.5878517086036,-13.1066074371338,0.805204689502716,-10.405175708478,-13.5129947662354,1.05765187740326
876,-19.9955719448368,-13.1066074371338,0.810275912284851,-17.9906536978604,-13.6007146835327,0.798728168010712
877,-14.8874114134482,-13.1367597579956,0.633770883083344,-10.6888172771437,-13.609034538269,0.586949825286865
878,-12.1582681757693,-13.1212282180786,0.578092217445374,-18.9122483473928,-13.667685508728,0.38178014755249
879,-21.9977859724184,-13.2282228469849,0.58585649728775,-10.8676710320844,-13.7003259658813,0.415860235691071
880,-16.3784510849571,-13.2657260894775,0.594990372657776,-12.4955424128835,-13.6583919525146,0.439148604869843
881,-17.4046777242601,-13.2723417282104,0.588326930999756,-20.155346380927,-13.6594562530518,0.363306909799576
882,-18.8017202865932,-13.3156633377075,0.604176759719849,-15.5882329979805,-13.6359539031982,0.299580901861191
883,-15.4336217657798,-13.3519916534424,0.619314849376678,-14.1101194480069,-13.6902341842651,0.176374942064285
884,-13.488929862092,-13.3487005233765,-0.154149055480957,-17.9933579172552,-13.6792516708374,0.00864879414439201
885,-11.718745195434,-13.3869943618774,0.735762119293213,-9.35398371766194,-13.7151889801025,0.316998720169067
886,-13.4787112617587,-13.3969593048096,0.806766629219055,-15.8978864200823,-13.7012186050415,0.471439808607101
887,-13.7419733985551,-13.3758363723755,0.81710147857666,-16.9565925365208,-13.7745246887207,0.393348634243011
888,-11.9840116151156,-13.3874578475952,0.81970626115799,-9.97909336813917,-13.7424068450928,0.293440103530884
889,-19.1429838524173,-13.368426322937,-0.404214382171631,-14.2944329461153,-13.7411031723022,0.469598948955536
890,-19.5777735016708,-13.3949642181396,0.6875079870224,-22.845188569821,-13.8081283569336,0.482202619314194
891,-11.3023287790176,-13.3919334411621,0.00675398111343384,-20.7368846861495,-13.8262825012207,0.0901412814855576
892,-14.1385244932719,-13.4166116714478,0.797090232372284,-19.7778406758759,-13.8762397766113,-0.15990075469017
893,-9.98401161511558,-13.3752565383911,0.794818878173828,-5.97357639953007,-13.8090658187866,-0.130063235759735
894,-12.0984233028608,-13.3326835632324,0.814213812351227,-19.9955719448368,-13.8592157363892,0.333550214767456
895,-16.0639567351342,-13.3331871032715,0.807756125926971,-16.4149102585141,-13.9014806747437,0.603545129299164
896,-11.9753002352985,-13.3197479248047,0.826479554176331,-1.96152587799565,-13.8480138778687,0.551647067070007
897,-15.0660553921461,-13.351770401001,0.769649922847748,-9.57331817533272,-13.8167362213135,0.757357954978943
898,-8.86616013825044,-13.2988948822021,0.730110764503479,-13.9911438896736,-13.8394174575806,0.945226311683655
899,-18.945209769107,-13.3294334411621,0.482821941375732,-18.1128759200826,-13.8257255554199,0.876014351844788
900,-18.9532637650459,-13.3215980529785,0.370597541332245,-16.9851393402458,-13.8693342208862,0.725773513317108
901,-9.97579042711167,-13.3165216445923,0.564479231834412,-9.97579042711167,-13.8275766372681,0.674576342105865
902,-9.73285243985465,-13.2805986404419,0.688739001750946,-19.6642439932046,-13.8464775085449,0.779628396034241
903,-17.1685632445123,-13.3285102844238,0.772150158882141,-15.9933579172552,-13.8731880187988,0.706771612167358
904,-14.2926706072308,-13.3305530548096,0.75878643989563,-15.9884396702788,-13.899884223938,0.514070570468903
905,-14.2198122192984,-13.3311882019043,0.791007876396179,-15.9884396702788,-13.898738861084,0.478360623121262
906,-13.3393183233064,-13.3201265335083,0.795178651809692,-17.3561073933232,-13.9446325302124,0.429850339889526
907,-5.97958355995238,-13.3201417922974,0.843880295753479,2.05895071929318,-13.8242988586426,0.532115578651428
908,-19.9977859724184,-13.3335046768188,-0.0994825959205627,-12.8934273402654,-13.7903175354004,0.867253482341766
909,-15.9723911281532,-13.3814525604248,1.00334846973419,-11.7208156753893,-13.7485189437866,1.0705703496933
910,-17.6278406758759,-13.43248462677,1.01950693130493,-19.9955719448368,-13.8553829193115,1.05194056034088
911,-13.1645671706711,-13.3819913864136,1.02050960063934,-19.458246290453,-13.8968477249146,0.856877386569977
912,-8.03083281031317,-13.3022260665894,1.02229952812195,-11.637100617837,-13.9156055450439,0.661922574043274
913,-12.5319043354221,-13.2694730758667,0.0573393106460571,-8.0439947879417,-13.8258857727051,0.510928630828857
914,-0.028385299988073,-13.1497068405151,0.928120613098145,-12.6257518401652,-13.8083305358887,0.542314410209656
915,-19.7411840042117,-13.1985101699829,0.820594310760498,-17.9906536978604,-13.815954208374,0.69255805015564
916,-13.0951227262267,-13.272759437561,0.710613608360291,-8.64846425420064,-13.7536554336548,0.683119893074036
917,-14.7986305206896,-13.3182954788208,0.577443718910217,-15.0931775143549,-13.8144121170044,0.675252377986908
918,-14.8785333350049,-13.3238210678101,0.747097313404083,-11.4433360490724,-13.805157661438,0.69376403093338
919,-19.9955719448368,-13.3496837615967,0.787511467933655,-19.992867725442,-13.8645935058594,0.783732533454895
920,-8.38676847431477,-13.2940301895142,0.618127644062042,-1.29839499094257,-13.7994804382324,0.864326477050781
921,-9.4043618556831,-13.2635765075684,0.925612688064575,-10.2160996927885,-13.7597951889038,1.02863943576813
922,-16.6700245839219,-13.2547397613525,0.938695132732391,-14.1095589760305,-13.7458238601685,1.02761816978455
923,-5.97466531297596,-13.1718320846558,0.895079731941223,-1.96152587799564,-13.642557144165,0.970355868339539
924,-19.992867725442,-13.1904983520508,-0.534727215766907,-12.5700328816516,-13.6172857284546,-0.12747323513031
925,-13.3094855292671,-13.2527618408203,1.0146564245224,-12.5759233798215,-13.6212511062622,1.33002781867981
926,-13.1712396440342,-13.2267293930054,1.04036116600037,-10.0385623981931,-13.5914087295532,1.34643507003784
927,-14.6933913862858,-13.2446441650391,1.02598869800568,-20.2425957543606,-13.6178007125854,1.33580827713013
928,-21.499169067139,-13.3288621902466,-0.399447381496429,-16.1826842745953,-13.6004467010498,0.965117573738098
929,-17.5484702457055,-13.3473424911499,0.332555085420609,-12.1987787196095,-13.6486902236938,1.28867328166962
930,-13.7725578706222,-13.3317718505859,0.706918239593506,-18.9118715043082,-13.6635932922363,1.00030899047852
931,-12.6599824936709,-13.3003339767456,0.0193355679512024,-13.6007719673551,-13.657262802124,0.714909732341766
932,-4.3392093423993,-13.2791805267334,0.824993848800659,-14.7151203382825,-13.6292400360107,0.558206140995026
933,-3.96974706599955,-13.230375289917,0.989959895610809,-1.95640274326873,-13.5669794082642,0.693493247032166
934,-16.8776171765145,-13.2799968719482,1.09332275390625,-17.9933579172552,-13.5536308288574,0.972972214221954
935,-9.98671583451039,-13.2703790664673,1.09587347507477,-13.9802184822749,-13.5379228591919,0.991024792194366
936,-8.03479189525445,-13.2021408081055,1.06446206569672,-13.3605938935966,-13.5603179931641,0.85793799161911
937,-9.17039771596525,-13.168999671936,-0.804151296615601,-19.9955719448368,-13.5858736038208,0.739049673080444
938,-17.088144647113,-13.1826143264771,1.05354249477386,-6.04779047746741,-13.4995403289795,0.62512618303299
939,-17.6289644024941,-13.2370014190674,1.02899026870728,-11.493626999731,-13.4627923965454,0.640215933322906
940,-9.36276113004584,-13.2194576263428,1.01122844219208,-10.2501214055223,-13.4512729644775,0.752721309661865
941,-5.95591255145553,-13.1586608886719,1.06734895706177,-5.97196109358115,-13.4567022323608,0.964385151863098
942,-10.2795917562806,-13.1591205596924,1.00462412834167,-11.6484642542006,-13.4678544998169,1.20851278305054
943,-9.97579042711167,-13.1457328796387,0.924976050853729,-11.9867158345104,-13.4812383651733,1.22614848613739
944,-7.35723935759209,-13.1082344055176,0.970216691493988,-14.7072972090308,-13.4650993347168,1.18121480941772
945,-11.4430801467378,-13.0492839813232,0.962964296340942,-11.4864704847302,-13.3950223922729,1.09235465526581
946,-12.80673846321,-13.0367412567139,-0.611736655235291,-17.9933579172552,-13.3868474960327,0.970244407653809
947,-1.94547733587002,-12.9832735061646,1.00452923774719,-11.9780044546933,-13.4269762039185,0.950640857219696
948,-3.97466531297596,-12.9313955307007,1.1684056520462,-11.9813073957208,-13.4537792205811,1.09951758384705
949,-5.97196109358115,-12.8709764480591,1.17403876781464,-11.9840116151156,-13.4396829605103,1.35458552837372
950,-15.9911438896736,-12.9037618637085,0.309174776077271,-16.7116118855092,-13.4511194229126,1.36736106872559
951,-14.3222631954253,-12.9326972961426,1.14498102664948,-15.9911438896736,-13.4912252426147,0.984751224517822
952,-19.4948594187567,-12.9640760421753,1.00269770622253,-15.0512039497337,-13.5237731933594,0.553632795810699
953,-9.08918333594626,-12.9376001358032,0.0303857326507568,-9.41618569893907,-13.529372215271,0.424500703811646
954,-9.49940868363304,-12.9259729385376,0.818690180778503,-12.4194009634215,-13.5212707519531,0.565471708774567
955,-15.1470107898487,-12.9470415115356,-0.208932459354401,-17.2170633292533,-13.5294790267944,0.58396327495575
956,-13.1191467502507,-13.0020914077759,0.82064014673233,-16.3060072378464,-13.5556211471558,0.453303843736649
957,-14.0859946179484,-13.0563592910767,0.884976625442505,-17.8751252226867,-13.6082859039307,0.395780265331268
958,-10.4159495883048,-13.0166292190552,0.879982888698578,-16.6820026058999,-13.6515893936157,0.333685040473938
959,-13.9884396702788,-12.9725732803345,-0.406288385391235,-17.4791804110195,-13.7126398086548,0.140730023384094
960,-18.9092457677225,-13.0011053085327,0.615663528442383,-8.22964480823351,-13.7178153991699,0.0696024671196938
961,0.0790426447230841,-12.918683052063,0.800043761730194,-7.97308620771686,-13.6510143280029,0.310676246881485
962,-12.0587645028008,-12.959228515625,-0.705459415912628,-13.9802184822749,-13.6509599685669,0.52270919084549
963,-6.19929857607435,-12.9314126968384,-0.70949912071228,-7.70469876169072,-13.5909786224365,0.701693058013916
964,-15.3153627472019,-12.9669876098633,1.0262815952301,-16.5817914842155,-13.6174602508545,0.766781687736511
965,-14.4932619605357,-12.9387350082397,0.0587902665138245,-17.9933579172552,-13.634973526001,0.769933879375458
966,-9.72538733112372,-12.9236440658569,0.894267737865448,-7.57132006794013,-13.5654926300049,0.67574143409729
967,-12.4669912388342,-12.9134979248047,0.847701132297516,-8.39869791609846,-13.5549564361572,0.718523919582367
968,-10.4586255318819,-12.858512878418,0.802839636802673,-7.97087218013526,-13.51979637146,0.818349421024323
969,-9.9297931130596,-12.8313903808594,0.961213707923889,-14.2558790146344,-13.5215950012207,0.795177936553955
970,-12.6870141602184,-12.8138093948364,1.06781053543091,-14.6990646817528,-13.5396957397461,0.747327208518982
971,-13.0590049911369,-12.8476533889771,1.04586005210876,-20.1200699368047,-13.6340007781982,0.642653942108154
972,-16.3713213987454,-12.847128868103,1.05584013462067,-16.3120713675476,-13.6847219467163,0.469222515821457
973,-18.5414628735234,-12.8541860580444,1.06453347206116,-17.9846465374381,-13.7484045028687,0.317283064126968
974,-10.9167857645803,-12.8335027694702,0.885969877243042,-10.4612697651949,-13.7147741317749,0.20483985543251
975,-7.97579042711167,-12.873703956604,0.800630211830139,-11.9813073957208,-13.7681674957275,0.27327024936676
976,-14.1424807242727,-12.9282369613647,0.973813056945801,-14.9906536978604,-13.8015995025635,0.432156145572662
977,-12.6477533915038,-12.881498336792,-0.187121987342834,-6.44033530129367,-13.7216386795044,0.593912780284882
978,-12.7466542024323,-12.8465194702148,1.00305223464966,-11.6841231689293,-13.6757555007935,0.671052575111389
979,-11.9862256426972,-12.8673572540283,0.87509948015213,-3.95260961042803,-13.6186571121216,0.87681657075882
980,-16.9508221154199,-12.8702583312988,-0.228701531887054,-17.7376559712192,-13.6424045562744,1.05934309959412
981,-19.6122603562796,-12.9345197677612,-0.567125380039215,-15.9035640084335,-13.7220506668091,0.790321171283722
982,-11.4239602882913,-12.9760370254517,0.712889552116394,-12.7335424814811,-13.7136688232422,0.340941488742828
983,-10.8458672728056,-12.9617290496826,0.241697907447815,-13.5582304726438,-13.6914091110229,-0.0189545247703791
984,-17.0560789546087,-12.9629096984863,0.748628497123718,-10.4720106189983,-13.6765270233154,0.172623082995415
985,-14.2824060255959,-12.9627542495728,0.710022270679474,-19.3169825127245,-13.6986818313599,0.412313878536224
986,-14.7241229270618,-12.9747438430786,-0.671330273151398,-15.9723911281532,-13.6451654434204,0.311422616243362
987,-16.6143256591907,-13.0456962585449,-1.09841442108154,-18.8683579172552,-13.7445154190063,0.177548289299011
988,-17.2459503998925,-13.1077356338501,0.741587936878204,-8.94413220270782,-13.693751335144,0.342838734388351
989,-9.98179758753398,-13.1077537536621,0.742062747478485,-1.96423009739046,-13.6402835845947,0.598876237869263
990,-1.93921992498415,-13.0373859405518,0.853999257087708,-3.96914834436687,-13.5652685165405,0.981917500495911
991,-15.938929862092,-13.0847749710083,0.958967208862305,-17.2286438896736,-13.6410026550293,1.32835125923157
992,-10.8533825011771,-13.0505418777466,-0.158323705196381,-2.20373990557725,-13.5454816818237,1.27836835384369
993,-18.4232118373953,-13.0934371948242,-0.235715329647064,-11.5856914743258,-13.5829277038574,1.08963811397552
994,-12.1262488538816,-13.1346940994263,0.348293006420135,-15.2307752260791,-13.6179246902466,0.91286289691925
995,-10.0085773123576,-13.0741233825684,0.878874838352203,-12.0823722708533,-13.5825567245483,0.660956621170044
996,-5.96865815255366,-13.0322790145874,0.984169960021973,-7.97687934055757,-13.5130815505981,0.552675545215607
997,-5.96353501782675,-12.9832315444946,1.06051671504974,-1.95418871568713,-13.4268093109131,0.791433155536652
998,-18.9805343508518,-13.0142679214478,1.05795192718506,-13.3095339133739,-13.432336807251,1.0930587053299
999,-14.7474196725479,-13.0537023544312,1.01237225532532,-16.9314423971363,-13.4403324127197,1.03104603290558
1000,-7.94586200772895,-12.9959878921509,-0.353031754493713,-18.9301395264506,-13.4599113464355,0.71029669046402
1001,-17.050432427223,-13.0297889709473,0.798985481262207,-20.9177689112127,-13.5155782699585,0.44999498128891
1002,-7.12913384947684,-12.9693965911865,-0.210558533668518,-13.9775142628801,-13.4754762649536,0.328179925680161
1003,-9.97308620771686,-12.9363870620728,1.02579855918884,-5.97357639953007,-13.4039812088013,0.468802720308304
1004,-16.2161301944829,-12.9814538955688,1.12511074542999,-2.65336587987614,-13.2701978683472,0.824935793876648
1005,-11.9840116151156,-12.9414091110229,1.17557621002197,-13.988929862092,-13.2916460037231,1.042405128479
1006,-20.4697360785754,-13.0513582229614,1.19398272037506,-13.7499690619241,-13.2766904830933,1.09767293930054
1007,-20.4906859513515,-13.1032056808472,0.570362567901611,-14.9982116572495,-13.2559547424316,1.05867636203766
1008,-16.7693540064051,-13.103102684021,1.02924883365631,-10.7339571813687,-13.2610273361206,0.854603290557861
1009,-14.6015330327749,-13.0938415527344,0.948233962059021,-12.9543505981664,-13.2942495346069,0.703832149505615
1010,-13.3208422794417,-13.1356182098389,-0.616518139839172,-12.4138655352557,-13.2426156997681,0.587771475315094
1011,-24,-13.1857919692993,0.75513744354248,-11.1179822570281,-13.2079162597656,0.566067755222321
1012,-14.6593963744045,-13.1902618408203,0.680492043495178,-15.9911438896736,-13.1812047958374,0.629841446876526
1013,-16.7142881498133,-13.2485513687134,0.110408008098602,-10.8502643534775,-13.2270421981812,0.572816610336304
1014,-16.3051063369454,-13.2731170654297,0.360912382602692,-15.1624161188877,-13.2349233627319,0.520839095115662
1015,-17.0828870089397,-13.2903060913086,0.750767588615417,-16.8691736152329,-13.2274475097656,0.366274386644363
1016,-11.4202755669727,-13.2309532165527,0.329703450202942,-18.5876975398967,-13.203332901001,0.364813297986984
1017,-15.9911438896736,-13.2576484680176,0.392152488231659,-21.9977859724184,-13.2834205627441,0.321337223052979
1018,-12.5587904808941,-13.2425899505615,0.810310900211334,-12.6657467589894,-13.2626962661743,0.285753488540649
1019,-3.88610167841083,-13.1957492828369,0.993820667266846,-15.9933579172552,-13.2493476867676,0.345314383506775
1020,-15.9906536978604,-13.2358484268188,1.20374798774719,-16.2424807880693,-13.2777223587036,0.505852043628693
1021,-13.942689301066,-13.2076454162598,-0.200993686914444,-14.9531677914575,-13.2825736999512,0.493683904409409
1022,-7.94014320496125,-13.1539726257324,1.0550833940506,-13.027651507025,-13.3162298202515,0.393902331590652
1023,-9.21425022661904,-13.1490468978882,-0.312477827072144,-8.3262126738909,-13.3026514053345,0.417990803718567
1024,-14.6061629327363,-13.1443367004395,1.09361565113068,-13.3586658862868,-13.2450580596924,0.438323110342026
1025,-15.9884396702788,-13.1403408050537,0.902566015720367,-14.1097631996905,-13.2697553634644,0.45709827542305
1026,-11.3118804675746,-13.0824489593506,0.255651295185089,-17.6299979601555,-13.2673501968384,0.449066787958145
1027,-3.95861677085034,-13.0095911026001,0.797718286514282,-9.98179758753398,-13.2626371383667,0.446084648370743
1028,-18.3159385624165,-13.0506420135498,0.871407270431519,-11.9802184822749,-13.2164220809937,0.687920391559601
1029,-5.96132099024515,-12.943733215332,1.25442099571228,-7.96083079843194,-13.1970443725586,0.933339536190033
1030,-15.9884396702788,-12.9411315917969,0.776232659816742,-10.3108574165938,-13.1824808120728,1.03281879425049
1031,-18.4040043050879,-12.9477939605713,0.776263236999512,-12.0249972935223,-13.1282777786255,1.06271505355835
1032,-16.5552052489138,-12.9328165054321,0.559557557106018,-19.9955719448368,-13.1576595306396,0.596957206726074
1033,-17.9933579172552,-12.9498815536499,-0.272805154323578,-13.6687967593659,-13.1547164916992,0.820258498191833
1034,-19.9955719448368,-12.9932594299316,0.180352628231049,-12.6176710320844,-13.1188802719116,0.760273039340973
1035,-16.9632693252137,-13.0282230377197,-0.0699017643928528,-17.9933579172552,-13.176474571228,0.65494042634964
1036,-14.5674756426972,-13.0354804992676,0.713878929615021,-12.2632904271117,-13.1522445678711,0.530257344245911
1037,-13.1786350264296,-13.0317249298096,0.139613032341003,-10.9840116151156,-13.1124277114868,0.435050636529922
1038,-9.97909336813917,-13.0183591842651,0.0177898444235325,-9.97638914874436,-13.1124095916748,0.260833263397217
1039,-12.3552870166519,-12.973108291626,0.565830588340759,-8.92428062488218,-13.0766086578369,0.625204086303711
1040,-15.0692511472326,-12.9430513381958,0.842054784297943,-21.2807125070858,-13.0661792755127,0.799505949020386
1041,-17.0266768845975,-12.9812145233154,0.759599089622498,-12.9760733584332,-13.014440536499,0.609418630599976
1042,-13.4178430225845,-12.9764099121094,-0.0790145099163055,-15.1378431561773,-12.9835071563721,0.477919548749924
1043,-11.989618984278,-12.9897804260254,0.238013461232185,-6.96247019102474,-12.9900989532471,0.529332399368286
1044,-9.81492574707842,-12.9745569229126,-0.0274339914321899,-9.78457965242844,-12.922025680542,0.501226902008057
1045,-12.3003617683516,-12.9494657516479,0.641841471195221,-11.2986379325832,-12.8879175186157,0.472339451313019
1046,-9.82539948326857,-12.935133934021,0.845921158790588,-14.3371154536546,-12.9704217910767,0.527763605117798
1047,-12.2494024691804,-12.916356086731,0.94761848449707,-13.1849011393859,-12.9944982528687,0.546753168106079
1048,-11.9840116151156,-12.9371423721313,1.05064976215363,-3.96644412497206,-12.9276676177979,0.585220396518707
1049,-14.5624687917234,-12.907922744751,1.07801747322083,-12.6347293184649,-12.8911466598511,0.834058165550232
1050,-13.8530592341632,-12.8739204406738,0.981664896011353,-16.935588334118,-12.8908166885376,0.987386465072632
1051,-15.6941617411235,-12.9120445251465,0.885206758975983,-16.4429491979091,-12.9339303970337,0.972336530685425
1052,-12.7607929799627,-12.9322299957275,-0.442168116569519,-14.4424994069557,-12.8991184234619,-0.744013428688049
1053,-17.9955719448368,-12.937744140625,0.791136085987091,-10.020860087534,-12.859302520752,1.01779437065125
1054,-7.98179758753398,-12.8956718444824,0.88710743188858,-7.97417512116276,-12.8058729171753,1.16880440711975
1055,-7.97687934055756,-12.8540515899658,1.11510074138641,-7.97958355995238,-12.7524814605713,1.35192286968231
1056,-15.2942500678323,-12.8670845031738,0.643827557563782,-18.5529909447781,-12.7604598999023,1.47820842266083
1057,-13.723102493909,-12.9187088012695,1.19229352474213,-16.6578105563403,-12.8852386474609,1.39090979099274
1058,-10.9056347534293,-12.8580942153931,1.18102049827576,-10.4704981016021,-12.869086265564,1.08046317100525
1059,-13.9552083098686,-12.8446464538574,-0.513317823410034,-4.80994677273655,-12.8230133056641,0.706388354301453
1060,-17.0439908286476,-12.8407535552979,1.11397647857666,-15.1549020265787,-12.7907419204712,0.631877541542053
1061,-18.5249837095427,-12.8764896392822,-0.525485157966614,-15.9824325098565,-12.7675695419312,0.586769342422485
1062,0.0545226641299811,-12.8225860595703,1.00555837154388,-9.97308620771686,-12.7564764022827,0.500489950180054
1063,-14.827835637168,-12.8378925323486,1.13748240470886,-17.9933579172552,-12.8228054046631,0.647267878055573
1064,-10.1167604355545,-12.9051485061646,1.16319918632507,-14.067698913597,-12.8324184417725,0.673298954963684
1065,-18.8913171009287,-12.8994827270508,0.392987370491028,-8.46937947831972,-12.7689437866211,0.483545303344727
1066,-15.9933579172552,-12.9188041687012,0.972551703453064,-7.97417512116276,-12.7644491195679,0.474087536334991
1067,-10.5358984075684,-12.8903865814209,1.01829588413239,-14.9060369634519,-12.763201713562,0.650831580162048
1068,-1.97245128539436,-12.8043460845947,1.07954001426697,-7.98179758753398,-12.7401237487793,0.840506196022034
1069,-11.9862256426972,-12.7509508132935,1.18509042263031,-3.96865815255366,-12.6332960128784,1.04485070705414
1070,-12.9775600022124,-12.7815561294556,1.17329466342926,-12.4780815892692,-12.7078266143799,1.27531433105469
1071,-11.9840116151156,-12.7987537384033,1.13382828235626,-5.97417512116275,-12.6795463562012,1.23935520648956
1072,-8.02056866094591,-12.7410907745361,0.810906887054443,-11.9862256426972,-12.6653909683228,1.12100958824158
1073,-16.9362319291529,-12.8141670227051,1.26650989055634,-13.9911438896736,-12.7455892562866,1.01738786697388
1074,-11.96796307299,-12.7606678009033,-0.308429002761841,-17.0169836829552,-12.7752361297607,0.74147230386734
1075,0.116112349170768,-12.6711645126343,0.919274091720581,-13.988929862092,-12.7846555709839,0.516620218753815
1076,2.07170548241457,-12.5695447921753,1.27364861965179,-1.96212459962833,-12.7308130264282,0.612850069999695
1077,-6.36216028872879,-12.5140037536621,1.31892287731171,-18.3757108584317,-12.7183666229248,0.981409728527069
1078,-13.9835214233024,-12.4638996124268,1.2480605840683,-11.9780044546933,-12.6903352737427,1.06666302680969
1079,-10.3572356973828,-12.4159574508667,-1.09503507614136,-11.3907281864478,-12.6849498748779,0.907198011875153
