EpisodeIndex,DQNEpisodeReward,DQNAverageReward,DQNEpisodeQ0,DDQNEpisodeReward,DDQNAverageReward,DDQNEpisodeQ0
1,-18.3181818181818,-18.3181819915771,0.113417468965054,-10.7727272727273,-10.7727270126343,0.0289987847208977
2,-21.1047120418848,-19.711446762085,0.330521792173386,-19.6937172774869,-15.2332229614258,0.168380796909332
3,-20.75,-20.0576305389404,0.425206780433655,-19.1238738738739,-16.5301074981689,0.0912910476326942
4,-17.6558441558442,-19.4571838378906,0.296650439500809,-22,-17.8975791931152,0.0152629716321826
5,-15.1912442396313,-18.6039962768555,0.148830711841583,-17.8940092165899,-17.8968658447266,0.0903432294726372
6,-19,-18.6699962615967,0.0139687228947878,-20.75,-18.3723888397217,-0.593675315380096
7,-15.6390243902439,-18.2370014190674,-0.00498502422124147,-13.8073170731707,-17.720235824585,0.143513262271881
8,-19.0413385826772,-18.3375434875488,-0.189624786376953,-22.2362204724409,-18.2847328186035,-0.0906207486987114
9,-17.7207792207792,-18.2690124511719,0.530335247516632,-20.3181818181818,-18.5106716156006,-0.429334819316864
10,-21.2643171806167,-18.5685424804688,0.425480484962463,-16.7929515418502,-18.3388996124268,0.0478592403233051
11,-20.25,-18.7214031219482,0.371070951223373,-15.25,-18.0580902099609,0.271020442247391
12,-20.2987804878049,-18.8528518676758,0.258600354194641,-18.734756097561,-18.1144790649414,0.102337338030338
13,-21.2428571428571,-19.0366992950439,0.127504542469978,-21.0603174603175,-18.3410835266113,-0.404568582773209
14,-15.0328947368421,-18.7507133483887,0.215313732624054,-14.0460526315789,-18.0342960357666,0.251626998186111
15,-20.25,-18.8506660461426,0.235944628715515,-21.5,-18.2653427124023,0.195616662502289
16,-15.4296116504854,-18.636848449707,-0.106784909963608,-18.75,-18.29563331604,-0.179461777210236
17,-19,-18.6582107543945,0.221048682928085,-22.75,-18.5576553344727,0.23880372941494
18,-16.929347826087,-18.562162399292,0.202960401773453,-20.25,-18.6516742706299,0.00996897835284472
19,-19.5,-18.6115226745605,0.265906691551208,-22.8714285714286,-18.8737659454346,0.4469153881073
20,-21.4525495750708,-18.7535743713379,-0.0535683706402779,-18.735835694051,-18.866870880127,-0.462621718645096
21,-21.4486301369863,-18.881908416748,0.77820360660553,-20.472602739726,-18.9433326721191,-0.433303683996201
22,-22.1906976744186,-19.0323104858398,1.6472499370575,-20.2162790697674,-19.0011940002441,-0.219811856746674
23,-16.6086956521739,-18.9269351959229,0.470538049936295,-15.5760869565217,-18.8522777557373,0.187035784125328
24,-21.75,-19.044563293457,0.789750933647156,-19.5263157894737,-18.8803615570068,0.0125963455066085
25,-19,-19.0427799224854,0.259203374385834,-20.25,-18.9351482391357,0.200460523366928
26,-16.6904761904762,-18.9523048400879,5.3467230796814,-19.4285714285714,-18.9541244506836,0.357938826084137
27,-20.3333333333333,-19.0034561157227,0.0003758545499295,-13.7638888888889,-18.7618942260742,0.179087221622467
28,-18.5721476510067,-18.9880523681641,0.0481640659272671,-14.8003355704698,-18.6204090118408,0.249968364834785
29,-20.1838709677419,-19.0292854309082,0.068776048719883,-22.75,-18.762809753418,-0.0987081751227379
30,-15.3656069364162,-18.9071636199951,-0.152200818061829,-21.5765895953757,-18.8565998077393,0.758774101734161
31,-20.25,-18.9504814147949,0.108781255781651,-17.75,-18.8209037780762,0.154798984527588
32,-17.1363636363636,-18.8937911987305,0.644545376300812,-21.1136363636364,-18.8925514221191,-0.0671316087245941
33,-22.75,-19.0106468200684,-0.457771986722946,-16.2682926829268,-18.8130283355713,0.302606403827667
34,-15.7083333333333,-18.913516998291,0.237710878252983,-15.9791666666667,-18.7296810150146,0.276472151279449
35,-16.0317679558011,-18.8311824798584,0.117693915963173,-19.2182320441989,-18.7436408996582,0.207584887742996
36,-15.2887755102041,-18.732780456543,-0.0208501052111387,-20.0428571428571,-18.7797298431396,-0.0558529831469059
37,-20.25,-18.7737884521484,0.0315823294222355,-21.5,-18.85325050354,-0.0435463637113571
38,-18.4129213483146,-18.7642917633057,0.329047173261642,-17.6685393258427,-18.8220729827881,-0.269441276788712
39,-16.2617647058824,-18.7001247406006,-0.0701291561126709,-17.95,-18.799711227417,0.576372921466827
40,-20.25,-18.7388725280762,0.109837211668491,-19,-18.8047180175781,0.162703037261963
41,-21.5,-18.8062171936035,0.202079847455025,-22.75,-18.9009437561035,0.0277068950235844
42,-20.9342105263158,-18.8568820953369,8.55048179626465,-17.9210526315789,-18.8776149749756,-0.423002183437347
43,-18.7372611464968,-18.8541011810303,-0.0541233606636524,-22.2866242038217,-18.9568939208984,0.118433527648449
44,-17.7694300518135,-18.8294486999512,-0.122375376522541,-19.2318652849741,-18.9631423950195,-0.079375259578228
45,-20.75,-18.872127532959,0.187139183282852,-17.968045112782,-18.9410305023193,-0.0597083792090416
46,-19,-18.874906539917,0.237097054719925,-17.75,-18.9151382446289,0.259343951940536
47,-18.9866863905325,-18.8772850036621,0.128561183810234,-16.5532544378698,-18.8648853302002,0.237817615270615
48,-18.9295774647887,-18.8783740997314,-0.590481042861938,-21.4776995305164,-18.919319152832,0.229738339781761
49,-17.3962264150943,-18.8481254577637,-0.0518813543021679,-22.75,-18.9974956512451,-0.0932409018278122
50,-13.2151898734177,-18.7354679107666,3.75472164154053,-13.7151898734177,-18.8918514251709,2.49703788757324
51,-15.8118811881188,-18.6781425476074,0.0246715880930424,-20.75,-18.9282855987549,0.106429785490036
52,-14.4669811320755,-18.5971584320068,0.207681834697723,-18.6399371069182,-18.9227390289307,0.138293221592903
53,-17.4112627986348,-18.5747833251953,6.3776388168335,-16.6134812286689,-18.8791675567627,0.159744769334793
54,-17.872905027933,-18.5617847442627,0.00915354304015636,-19.7067039106145,-18.8944931030273,0.443772703409195
55,-20.304347826087,-18.5934677124023,-0.369853228330612,-15.375,-18.8305015563965,0.281312197446823
56,-17.1084788029925,-18.566951751709,-0.19515572488308,-19.7917705735661,-18.8476676940918,0.317041844129562
57,-12.3295454545455,-18.4575233459473,0.0402430780231953,-16.1136363636364,-18.7997016906738,-0.0950205624103546
58,-20.34375,-18.4900455474854,-0.0302256047725677,-14.875,-18.7320346832275,-0.130388274788857
59,-22.75,-18.5622482299805,0.242157816886902,-17.25,-18.7069149017334,-0.0578656792640686
60,-21.2787356321839,-18.6075210571289,1.35117018222809,-19.7385057471264,-18.7241096496582,-0.11251412332058
61,-14.4673913043478,-18.5396499633789,1.52141273021698,-20.0072463768116,-18.7451457977295,-0.454595237970352
62,-20.2909090909091,-18.5678958892822,0.376581907272339,-21.5,-18.7895774841309,-0.151163056492805
63,-17.75,-18.5549144744873,0.291591763496399,-16.5,-18.7532367706299,0.0651360377669334
64,-16.6645569620253,-18.5253772735596,0.246799752116203,-19.5759493670886,-18.7660903930664,0.180758222937584
65,-20.0581395348837,-18.548957824707,0.590421736240387,-22.1860465116279,-18.8187046051025,-0.185127168893814
66,-17,-18.5254878997803,2.86296010017395,-16.9807692307692,-18.7908573150635,2.78762555122375
67,-17.0504115226337,-18.5034732818604,-0.118158452212811,-12.3703703703704,-18.6950283050537,-0.166011482477188
68,-22.75,-18.5659217834473,0.230427116155624,-16.5,-18.662748336792,0.113235831260681
69,-19.8164251207729,-18.5840454101562,0.0215259231626987,-21.469806763285,-18.7034301757812,0.191100120544434
70,-17.343471810089,-18.5663223266602,-0.0951882898807526,-20.3991097922849,-18.727653503418,-0.0794225782155991
71,-20.75,-18.5970783233643,0.130792871117592,-18.7768817204301,-18.7283477783203,-0.089188352227211
72,-16.8977272727273,-18.5734767913818,0.00844355206936598,-14.5795454545455,-18.6707248687744,0.0265695136040449
73,-20.75,-18.60329246521,0.201971799135208,-20.0147058823529,-18.689136505127,-0.00792248547077179
74,-22,-18.6491928100586,-0.395130097866058,-19,-18.693338394165,0.232205405831337
75,-10.6123188405797,-18.5420341491699,-0.257634967565536,-13.4492753623188,-18.6234169006348,0.360134065151215
76,-14.45,-18.4881935119629,0.149058416485786,-22.75,-18.677713394165,0.26092141866684
77,-24,-18.5597743988037,0.293963134288788,-21.5,-18.7143669128418,0.134870707988739
78,-17.3477011494253,-18.5442352294922,0.147376760840416,-18.8908045977011,-18.7166290283203,0.325307667255402
79,-15.0873493975904,-18.5004768371582,-0.0695339664816856,-18.6385542168675,-18.7156410217285,-0.129655778408051
80,-21.5767195767196,-18.5389308929443,0.335157841444016,-17.3082010582011,-18.6980476379395,0.155968621373177
81,-15.3490099009901,-18.499547958374,0.39437261223793,-14.8762376237624,-18.6508655548096,-0.349167346954346
82,-18.25,-18.4965038299561,2.73194479942322,-15.1741935483871,-18.6084671020508,1.03834247589111
83,-21.165512465374,-18.5286617279053,0.140575110912323,-16.9743767313019,-18.5887794494629,0.122784309089184
84,-20.25,-18.5491542816162,0.0458477176725864,-16.6914634146341,-18.5661907196045,0.0562135800719261
85,-17.5775401069519,-18.5377235412598,-0.212974369525909,-15.4331550802139,-18.5293312072754,-0.245973974466324
86,-22.75,-18.5867042541504,1.19771933555603,-20.25,-18.5493392944336,-0.0583809353411198
87,-14.1381215469613,-18.5355682373047,0.975339353084564,-12.8604972375691,-18.4839515686035,0.0837781950831413
88,-20.25,-18.5550518035889,0.272810995578766,-21.5,-18.5182247161865,0.299238681793213
89,-16.5,-18.5319595336914,0.25478458404541,-19,-18.5236377716064,0.267474412918091
90,-21.5,-18.5649394989014,0.196068048477173,-14.1681222707424,-18.4752426147461,-0.318063765764236
91,-15.75,-18.5340061187744,0.37762850522995,-21.5585106382979,-18.5091247558594,-0.371359467506409
92,-20.3473053892216,-18.5537166595459,7.23753929138184,-15.5329341317365,-18.4767742156982,0.0809266120195389
93,-16.5586956521739,-18.532262802124,0.257843017578125,-16.9652173913043,-18.460521697998,0.317303329706192
94,-19.7523364485981,-18.5452442169189,-0.23341529071331,-15.6915887850467,-18.4310646057129,-0.0723850950598717
95,-11.5648148148148,-18.4717674255371,0.218192294239998,-15.1759259259259,-18.396800994873,0.261551052331924
96,-18.2540983606557,-18.4694995880127,0.325448960065842,-17.8565573770492,-18.3911724090576,0.307348638772964
97,-21.1705607476636,-18.4973449707031,0.37564155459404,-15.6985981308411,-18.3634147644043,0.179192796349525
98,-12.5,-18.4361476898193,0.357246994972229,-15.575,-18.3349628448486,0.271731317043304
99,-16.5304232804233,-18.4168968200684,0.246192842721939,-19.6441798941799,-18.3481845855713,0.0943890288472176
100,-18.3740157480315,-18.416467666626,0.787590265274048,-22,-18.3847026824951,0.00978539884090424
101,-17.5714285714286,-18.4081020355225,0.781319499015808,-22,-18.4204978942871,0.54983389377594
102,-14.6330409356725,-18.3710918426514,1.14126884937286,-12.3991228070175,-18.3614654541016,0.260582715272903
103,-20.2885714285714,-18.3897075653076,1.08322751522064,-17,-18.3482475280762,0.301317632198334
104,-21.5,-18.4196147918701,0.41362401843071,-20.1885964912281,-18.3659439086914,0.229609817266464
105,-15.4868421052632,-18.3916835784912,0.340724527835846,-15.6067251461988,-18.3396644592285,0.180080726742744
106,-17,-18.3785533905029,10.323974609375,-14.612426035503,-18.3045024871826,0.560622036457062
107,-19,-18.3843612670898,0.273572951555252,-17.75,-18.2993202209473,0.224724337458611
108,-18.4655172413793,-18.3851146697998,0.0161680448800325,-14.764367816092,-18.2665882110596,0.306274801492691
109,-16.5,-18.3678188323975,0.225697785615921,-17.75,-18.261848449707,0.24881149828434
110,-18.7585836909871,-18.3713703155518,0.192867711186409,-14.0783261802575,-18.2238178253174,0.0246657468378544
111,-18.0692307692308,-18.3686485290527,2.71899747848511,-16.3974358974359,-18.2073631286621,-0.0426364317536354
112,-19.5594795539033,-18.3792819976807,0.52381306886673,-17.682156133829,-18.202672958374,0.139080166816711
113,-18.753164556962,-18.38258934021,13.7274646759033,-12.7784810126582,-18.1546726226807,0.489475846290588
114,-20.3636363636364,-18.3999691009521,1.86485958099365,-16.0045454545455,-18.1358127593994,0.436987012624741
115,-17.6304347826087,-18.3932781219482,-0.0645685642957687,-20.3136645962733,-18.154748916626,0.259731739759445
116,-20.3158914728682,-18.4098529815674,0.486491501331329,-18.7325581395349,-18.1597309112549,0.142776668071747
117,-21.1329787234043,-18.433126449585,-0.115789674222469,-17.7234042553191,-18.1560020446777,0.00554083287715912
118,-16.5221518987342,-18.4169292449951,1.69655287265778,-18.2784810126582,-18.1570377349854,0.39336234331131
119,-12.75,-18.3693084716797,0.543499171733856,-19,-18.1641216278076,0.117681920528412
120,-15.6050295857988,-18.3462753295898,0.470646470785141,-18.344674556213,-18.1656265258789,0.082897275686264
121,-17.1140350877193,-18.3360900878906,0.395966678857803,-22.75,-18.2035140991211,0.296361714601517
122,-17.75,-18.3312873840332,0.128432646393776,-20.25,-18.2202892303467,0.283911108970642
123,-15.36866359447,-18.3071994781494,2.43328285217285,-21.5,-18.2469539642334,0.103215053677559
124,-15.0509708737864,-18.2809391021729,0.434598177671432,-22,-18.2772197723389,0.219345912337303
125,-18.1808510638298,-18.2801399230957,0.0445497930049896,-13.2127659574468,-18.2367038726807,-0.256704866886139
126,-24,-18.3255367279053,0.00844315066933632,-17.75,-18.2328395843506,0.0352959297597408
127,-17,-18.3150997161865,0.0233351979404688,-19,-18.2388801574707,-0.222893372178078
128,-19,-18.3204498291016,0.311717808246613,-19.9260355029586,-18.2520637512207,0.0669912546873093
129,-14.645,-18.2919578552246,0.317634046077728,-11.09,-18.1965427398682,-0.12406961619854
130,-16.9323529411765,-18.2814979553223,0.231875658035278,-20.25,-18.2123394012451,0.267943620681763
131,-18.7841225626741,-18.2853355407715,0.4833844602108,-21.4526462395543,-18.2370738983154,-0.0783663243055344
132,-17.1634199134199,-18.276834487915,0.155518397688866,-22.75,-18.2712631225586,-0.258616715669632
133,-21.5,-18.3010692596436,0.563214302062988,-20.25,-18.2861404418945,-0.0324767902493477
134,-17.75,-18.2969570159912,0.32825231552124,-19,-18.291467666626,0.173957407474518
135,-20.881455399061,-18.3161029815674,0.323378950357437,-17.599765258216,-18.2863445281982,-0.226169779896736
136,-12.5,-18.2733364105225,0.241465017199516,-22.1686746987952,-18.3148918151855,-0.0481149405241013
137,-19,-18.2786407470703,0.280337274074554,-16.5,-18.301643371582,0.192045599222183
138,-16.5,-18.2657527923584,0.352942496538162,-16.5,-18.2885875701904,0.215287998318672
139,-17.1629213483146,-18.2578182220459,0.360919058322906,-14.4747191011236,-18.2611503601074,0.0434349626302719
140,-20.75,-18.2756195068359,0.783836901187897,-14.6382352941176,-18.2352714538574,2.14781612157822e-05
141,-21.5782208588957,-18.2990436553955,0.205464154481888,-14.8680981595092,-18.2113914489746,-0.0322215408086777
142,-19,-18.3039798736572,0.930730819702148,-20.25,-18.2257480621338,-0.587005436420441
143,-18.25,-18.3036022186279,0.480089724063873,-14.9285714285714,-18.2026920318604,-0.00923340395092964
144,-20.25,-18.31711769104,0.209711477160454,-16.5,-18.1908664703369,0.309457868337631
145,-22.75,-18.3476905822754,-0.190077036619186,-18.8370786516854,-18.1953239440918,0.0778646245598793
146,-24,-18.3864040374756,0.317932099103928,-22.75,-18.2265205383301,0.319034397602081
147,-16.3947368421053,-18.3728542327881,-0.244975849986076,-10.9736842105263,-18.1771812438965,0.254021167755127
148,-17.3636363636364,-18.3660354614258,0.346371531486511,-18.0179425837321,-18.1761054992676,0.444948017597198
149,-12.6575630252101,-18.3277244567871,0.346857011318207,-15.3319327731092,-18.1570167541504,0.0476809293031693
150,-20.8687050359712,-18.3446655273438,0.738182842731476,-13.5197841726619,-18.1261024475098,0.31937700510025
151,-15.9565217391304,-18.3289203643799,0.652387201786041,-10.8369565217391,-18.1265296936035,0.3554847240448
152,-19.9444444444444,-18.3211841583252,0.157362043857574,-17.0563492063492,-18.1089477539062,0.24285563826561
153,-17.5,-18.2995185852051,3.94415163993835,-19.8884615384615,-18.1140460968018,0.172034233808517
154,-16.0555555555556,-18.2888488769531,0.348841339349747,-22.75,-18.119047164917,-0.115471243858337
155,-13.885838150289,-18.2801456451416,0.326815068721771,-16.2514450867052,-18.1080951690674,-0.105447575449944
156,-15.25,-18.2551460266113,0.487520784139633,-15.25,-18.0714282989502,0.207196742296219
157,-13.76,-18.242618560791,0.141152262687683,-15.37,-18.0818462371826,0.131525158882141
158,-21.5745614035088,-18.2595062255859,-0.272012561559677,-20.5614035087719,-18.0706806182861,-0.0867030695080757
159,-20.25,-18.2763690948486,0.11822821199894,-16.9621951219512,-18.0483074188232,-0.686503946781158
160,-16.3198324022346,-18.2434062957764,1.96639323234558,-19.127094972067,-18.0638675689697,0.0468514487147331
161,-20.7956989247312,-18.2470417022705,0.233703941106796,-20.241935483871,-18.0971488952637,-0.204231157898903
162,-18.25,-18.2333831787109,0.620805203914642,-20.941935483871,-18.1118621826172,-0.503630578517914
163,-17,-18.205099105835,-0.0225731916725636,-14.825,-18.0702934265137,-0.0597589835524559
164,-15.4777070063694,-18.208065032959,1.76440560817719,-19.6592356687898,-18.1077156066895,0.208647280931473
165,-20.25,-18.208065032959,0.206043556332588,-16.5,-18.0743808746338,0.27048859000206
166,-17.2318181818182,-18.2200794219971,-0.0166691988706589,-18.25,-18.0710487365723,-0.0200823321938515
167,-15.0545977011494,-18.193775177002,0.158975839614868,-21.5775862068966,-18.063232421875,0.0507944785058498
168,-17.0113636363636,-18.1943225860596,0.421735286712646,-13.0909090909091,-18.0155048370361,0.124853953719139
169,-16.5595238095238,-18.1747207641602,0.0308566577732563,-19.2208994708995,-17.9911670684814,-0.115029148757458
170,-18.3915211970075,-18.1543140411377,0.204975754022598,-22.9576059850374,-18.0193138122559,-0.491719454526901
171,-20.5374015748031,-18.1482391357422,-0.0438479632139206,-17.6062992125984,-18.0002059936523,-0.201539561152458
172,-21.2785714285714,-18.1421585083008,0.429765582084656,-18.3357142857143,-17.9876670837402,-0.133452400565147
173,-16.4147058823529,-18.1408634185791,0.322306483983994,-21.5,-18.0271606445312,0.343105137348175
174,-15.4810126582278,-18.0990715026855,0.154986366629601,-16.1487341772152,-18.0046443939209,0.369485288858414
175,-19,-18.0990715026855,0.433457940816879,-20.25,-18.0046443939209,0.35333389043808
176,-16.8727810650888,-18.1002864837646,0.110868647694588,-17,-17.988452911377,0.0438277870416641
177,-18.4295774647887,-18.0875949859619,0.258461475372314,-15.5363849765258,-18.0002689361572,0.221720665693283
178,-16.7214484679666,-18.0752563476562,-0.0908356830477715,-21.383008356546,-18.044153213501,-0.104387022554874
179,-18.5654205607477,-18.0644683837891,0.14915719628334,-22.75,-18.044153213501,-0.0912702977657318
180,-15.475138121547,-18.0651969909668,-0.109292894601822,-17.2375690607735,-18.0152282714844,-0.337370932102203
181,-16.5,-18.0401973724365,0.366015911102295,-17.75,-18.0152282714844,0.296012341976166
182,-18.8409090909091,-18.0515613555908,3.22205209732056,-17.0454545454545,-17.9881057739258,0.157044187188148
183,-21.0574792243767,-18.0402774810791,0.282292723655701,-13.8372576177285,-17.9718971252441,0.255730390548706
184,-20.25,-18.070556640625,0.309294462203979,-16.5,-17.9753704071045,0.237284645438194
185,-16.0594713656388,-18.0707397460938,-0.0665471777319908,-17.8832599118943,-17.9664707183838,0.068248838186264
186,-16.5,-18.0788154602051,0.259375065565109,-17.75,-17.9511852264404,0.224860340356827
187,-15.9021739130435,-18.0498294830322,0.127442225813866,-19,-17.9345188140869,0.0121561624109745
188,-10.3895027624309,-17.9963397979736,0.182142809033394,-17.3245856353591,-17.9322242736816,0.0478053130209446
189,-12.875786163522,-17.9737663269043,0.337893486022949,-16.377358490566,-17.9217414855957,0.0851273983716965
190,-13.0906735751295,-17.9260387420654,0.47219705581665,-17.7111398963731,-17.9131469726562,0.137100756168365
191,-21.5,-17.9260387420654,1.88636136054993,-17.7338129496403,-17.8797073364258,0.289168477058411
192,-17.7954545454545,-17.9051132202148,3.70648264884949,-15.75,-17.865234375,0.161117136478424
193,-21.5,-17.9235324859619,0.297800123691559,-16.5,-17.8266563415527,0.20171158015728
194,-17.75,-17.9234008789062,0.440451562404633,-16.9,-17.8111095428467,0.215758264064789
195,-20.25,-17.9200687408447,0.511999666690826,-19,-17.8179912567139,0.23780620098114
196,-20.25,-17.9284019470215,0.311611264944077,-15.25,-17.8013248443604,0.251737982034683
197,-19.6138613861386,-17.9325847625732,0.11380760371685,-16.4529702970297,-17.8006553649902,0.0789421498775482
198,-14.2546511627907,-17.9014167785645,-0.121044278144836,-15.2139534883721,-17.7588977813721,-0.206114485859871
199,-16.78125,-17.8973178863525,-0.163591042160988,-20.25,-17.7422313690186,0.219412088394165
200,-17,-17.9225482940674,0.504993200302124,-8.17028985507246,-17.705265045166,1.43393301963806
201,-17.707249070632,-17.9351863861084,0.240732997655869,-15.4470260223048,-17.6699123382568,0.154387310147285
202,-17.75,-17.9570713043213,0.21737876534462,-16.5,-17.6556453704834,0.261392802000046
203,-13.9253246753247,-17.9338321685791,0.142423689365387,-14.6883116883117,-17.6428108215332,0.252386063337326
204,-20.3370786516854,-17.9502582550049,0.474790304899216,-21.5,-17.6547679901123,0.0651479512453079
205,-18.287037037037,-17.9368095397949,0.0191204287111759,-18.9212962962963,-17.6784076690674,-0.395596891641617
206,-17.75,-17.9410877227783,0.0504045076668262,-16.5,-17.6564636230469,0.1596489995718
207,-17.9331797235023,-17.9784450531006,0.192937359213829,-18.3168202764977,-17.6711502075195,-0.101739272475243
208,-16.9228971962617,-17.955638885498,0.123319670557976,-15.607476635514,-17.6760330200195,-0.0747977644205093
209,-18.9841463414634,-17.930534362793,0.188315466046333,-19.8475609756098,-17.6933498382568,-0.410987317562103
210,-19.8035714285714,-17.9207000732422,0.311026990413666,-14.25,-17.6567611694336,0.0963400602340698
211,-11.7591623036649,-17.9026432037354,23.6577930450439,-20.3219895287958,-17.6588592529297,-0.0105030182749033
212,-14,-17.8607063293457,0.408809840679169,-17.75,-17.6338596343994,0.262697219848633
213,-15.5,-17.8457069396973,0.257429540157318,-16.4,-17.6331939697266,0.161592662334442
214,-13.4695845697329,-17.824405670166,0.182799309492111,-19.3382789317507,-17.6316089630127,-0.100968390703201
215,-13.4539473684211,-17.7803783416748,1.362877368927,-14.4802631578947,-17.5802364349365,-0.140236154198647
216,-16.2254098360656,-17.7752132415771,0.798925042152405,-14.7909836065574,-17.565637588501,0.317725598812103
217,-12.75,-17.7465438842773,0.373503595590591,-14,-17.5765018463135,0.299677670001984
218,-22.3333333333333,-17.743766784668,0.282948702573776,-20.4583333333333,-17.6028900146484,-0.220163404941559
219,-20.25,-17.7466564178467,0.230857834219933,-17.75,-17.5780925750732,0.218810319900513
220,-16.8765060240964,-17.7435436248779,-0.123231634497643,-16.3795180722892,-17.5512962341309,-0.0511229783296585
221,-15.5991124260355,-17.7092037200928,14.205174446106,-14.3949704142012,-17.5220813751221,0.14811609685421
222,-21.2233727810651,-17.7380428314209,0.141911759972572,-19.9082840236686,-17.5576076507568,0.491292625665665
223,-19.6494082840237,-17.7307052612305,0.440961211919785,-16.6183431952663,-17.5349636077881,-0.311699867248535
224,-16.0580736543909,-17.6910915374756,0.307353079319,-12.264164305949,-17.4900588989258,0.021877259016037
225,-19.5782208588957,-17.7508640289307,0.210178673267365,-20.0828220858896,-17.5342826843262,0.144508674740791
226,-20.25,-17.7895317077637,0.140699654817581,-15.25,-17.484281539917,0.261110574007034
227,-17.2669082125604,-17.7446441650391,0.253962367773056,-21.1268115942029,-17.4817943572998,0.0559365674853325
228,-19.9112554112554,-17.7617359161377,-0.12218214571476,-16.3387445887446,-17.4647808074951,0.0265199840068817
229,-14.5091836734694,-17.7578811645508,-0.123601369559765,-13.3224489795918,-17.4293384552002,-0.119780741631985
230,-16.6168831168831,-17.7248153686523,0.176085114479065,-22.75,-17.4656181335449,-0.196222901344299
231,-16.3740157480315,-17.7316474914551,-0.03096729144454,-20.25,-17.501443862915,-0.0203543901443481
232,-21.5,-17.7533130645752,0.128152847290039,-20.25,-17.5352840423584,0.0755909159779549
233,-20.25,-17.7472095489502,0.0784554332494736,-8.7677304964539,-17.4805736541748,-0.202231824398041
234,-15.25,-17.7138767242432,0.28413787484169,-15.25,-17.4709644317627,0.136141672730446
235,-14.7199248120301,-17.6948280334473,0.132191643118858,-19,-17.4947414398193,0.114959642291069
236,-19.5,-17.6731605529785,1.48158168792725,-18.5727272727273,-17.4835586547852,0.269283026456833
237,-16.4566210045662,-17.6886157989502,0.077663354575634,-17.3413242009132,-17.5134315490723,0.191867470741272
238,-21.5,-17.696949005127,0.469542980194092,-15.25,-17.4717636108398,0.171913221478462
239,-19.5,-17.7169494628906,-0.176210075616837,-17.9721030042918,-17.4649124145508,0.0203084871172905
240,-20.0060975609756,-17.7069911956787,0.795395612716675,-14.6280487804878,-17.4679794311523,-0.203407913446426
241,-16.2777777777778,-17.7105102539062,0.139178782701492,-16.9444444444444,-17.4372177124023,-0.224482804536819
242,-15.2446808510638,-17.67649269104,0.151477709412575,-18.2765957446809,-17.455509185791,-0.186412841081619
243,-14.406976744186,-17.6621475219727,0.574782133102417,-21.4709302325581,-17.4855461120605,0.379851102828979
244,-20.75,-17.6687984466553,0.553876280784607,-18.9325396825397,-17.507152557373,0.242951735854149
245,-14.2640449438202,-17.6867942810059,0.138058215379715,-20.5730337078652,-17.5431346893311,-0.634940087795258
246,-19.0909090909091,-17.6923732757568,0.459316045045853,-19,-17.5507564544678,-0.0169195011258125
247,-22.9647058823529,-17.7043342590332,0.253476142883301,-18.25,-17.5677661895752,-0.305797189474106
248,-19,-17.7476673126221,0.37169474363327,-16.1176470588235,-17.571382522583,-0.0403123386204243
249,-18.25,-17.7591304779053,28.4313640594482,-17,-17.5537567138672,0.215529710054398
250,-17.6050295857988,-17.7540035247803,0.181329473853111,-22,-17.5537567138672,-0.00292517989873886
251,-17.36004784689,-17.7525939941406,0.487932771444321,-21.1136363636364,-17.5478458404541,-0.359379708766937
252,-15.6833333333333,-17.7595958709717,0.570439875125885,-13.2888888888889,-17.5537796020508,0.0601654872298241
253,-18.5272925764192,-17.7478542327881,0.054607205092907,-20.1899563318777,-17.575044631958,-0.576876878738403
254,-17.75,-17.7228546142578,0.274397104978561,-17.75,-17.5587882995605,0.187915533781052
255,-16.1881188118812,-17.7275295257568,-0.112387582659721,-21.5,-17.5980758666992,0.0321903750300407
256,-15.1795774647887,-17.7153930664062,0.057347372174263,-19.1490610328638,-17.6283206939697,-0.200093179941177
257,-11.9021739130435,-17.6680736541748,0.199755564332008,-19.6804347826087,-17.6411895751953,0.069403663277626
258,-16.6688311688312,-17.6560974121094,0.0837442204356194,-14.1688311688312,-17.6372203826904,0.153086245059967
259,-18.743288590604,-17.6710529327393,0.114383883774281,-13.8657718120805,-17.6113243103027,0.214322492480278
260,-16.82805907173,-17.658182144165,13.6190938949585,-16.3364978902954,-17.6263809204102,1.09262692928314
261,-20.0765765765766,-17.6715641021729,0.271376729011536,-13.8445945945946,-17.6093597412109,0.151705428957939
262,-21.5,-17.6844997406006,0.252181172370911,-16.5,-17.6014785766602,0.22015854716301
263,-17.75,-17.6778125762939,2.05624055862427,-18.25,-17.6379566192627,-0.225489646196365
264,-17.0585106382979,-17.6557788848877,0.144403070211411,-16.9734042553191,-17.6444149017334,-0.0292146876454353
265,-18.6862745098039,-17.6628189086914,0.137196481227875,-16.5637254901961,-17.6194133758545,0.0744088217616081
266,-17.1710526315789,-17.6418514251709,1.11500370502472,-13.3289473684211,-17.5833911895752,-0.0315788313746452
267,-20.4425287356322,-17.6372489929199,0.206372112035751,-14.1350574712644,-17.5594692230225,-0.188463419675827
268,-12.75,-17.6121006011963,0.130097076296806,-17.75,-17.5559463500977,0.0597374439239502
269,-21.4679144385027,-17.6702213287354,0.191088050603867,-19.0401069518717,-17.5562133789062,0.102077499032021
270,-20.3421052631579,-17.7018013000488,0.253097087144852,-18.25,-17.5555820465088,0.0878170654177666
271,-10.9446107784431,-17.6606731414795,2.43523287773132,-10.998502994012,-17.4772396087646,1.41665494441986
272,-15.858024691358,-17.6480579376221,0.251172423362732,-17.2263374485597,-17.4570808410645,0.194789290428162
273,-12.9486301369863,-17.6319236755371,2.393883228302,-18.25,-17.4354133605957,2.01770806312561
274,-22.75,-17.6832523345947,-0.216291189193726,-15.5482456140351,-17.3924026489258,0.0256871432065964
275,-22.7119565217391,-17.7134609222412,0.975770950317383,-18.929347826087,-17.430513381958,-0.146944314241409
276,-17.3421658986175,-17.6690731048584,2.32651782035828,-17.6705069124424,-17.4299812316895,-0.264390259981155
277,-17.7717391304348,-17.6742191314697,0.99479478597641,-21.5,-17.4466495513916,-0.380689084529877
278,-18.2645631067961,-17.6693153381348,-0.257050514221191,-20.4296116504854,-17.4500064849854,-0.0852087587118149
279,-18.6242236024845,-17.6958427429199,-0.0204935669898987,-18.25,-17.4977397918701,-0.18644642829895
280,-18.2957317073171,-17.7049312591553,-0.0814279615879059,-16.8536585365854,-17.47509765625,-0.227382808923721
281,-16.2212643678161,-17.6878471374512,0.780480742454529,-19.7385057471264,-17.4636707305908,-0.25366884469986
282,-17.5,-17.690092086792,-0.66286301612854,-17.4261363636364,-17.4281768798828,-0.385901749134064
283,-20.9024390243902,-17.686107635498,-0.201462730765343,-18.7329268292683,-17.418062210083,-0.283399403095245
284,-19.8377192982456,-17.7000255584717,0.15768401324749,-12.8640350877193,-17.3771572113037,0.069765605032444
285,-19,-17.6874828338623,0.445163786411285,-16.5,-17.3698234558105,0.216034203767776
286,-17,-17.7174816131592,0.301673144102097,-18.960843373494,-17.3484382629395,0.14719183743
287,-20.25,-17.7258148193359,0.33539205789566,-20.25,-17.3734397888184,0.237460643053055
288,-18.5886075949367,-17.7397403717041,0.0532844215631485,-13.376582278481,-17.3526172637939,0.214842781424522
289,-14.5056179775281,-17.7220249176025,1.7829430103302,-19.5,-17.3861179351807,0.163816124200821
290,-14.1446540880503,-17.6779880523682,0.159206077456474,-16.6933962264151,-17.3998184204102,-0.252728253602982
291,-17.734496124031,-17.6523628234863,-0.240890234708786,-9.96705426356589,-17.3671474456787,-0.34258621931076
292,-17,-17.639030456543,1.68566358089447,-16.25,-17.3404808044434,0.741652488708496
293,-15.640756302521,-17.6216354370117,0.104566596448421,-16.5882352941176,-17.3515453338623,0.0342591926455498
294,-20.25,-17.6216354370117,0.294284969568253,-16.5,-17.3515453338623,0.343360900878906
295,-15.1710526315789,-17.5711097717285,17.6216011047363,-17.1052631578947,-17.3399982452393,0.641703486442566
296,-16.7912621359223,-17.5230522155762,0.887599170207977,-17.5072815533981,-17.3050479888916,0.181720495223999
297,-21.4467741935484,-17.5567321777344,1.6420761346817,-18.25,-17.3535537719727,0.103814423084259
298,-15.75,-17.5459728240967,0.646442294120789,-15.8901098901099,-17.3393707275391,1.92433452606201
299,-15.1552901023891,-17.5626239776611,13.0876607894897,-18.0221843003413,-17.3573055267334,0.4551962018013
300,-20.25,-17.558500289917,0.262148201465607,-15.25,-17.368839263916,0.274231612682343
301,-12.7121951219512,-17.5368709564209,0.293308436870575,-16.5,-17.4065933227539,0.180729433894157
302,-18.1647727272727,-17.5250072479248,0.294639021158218,-14.1136363636364,-17.3869743347168,0.130102068185806
303,-19.3433734939759,-17.537296295166,0.267370283603668,-15.7710843373494,-17.359525680542,0.246539637446404
304,-17.1071428571429,-17.5443058013916,0.00237620738334954,-10.7321428571429,-17.2794055938721,0.065088763833046
305,-13.3120805369128,-17.5404815673828,0.288934290409088,-16.25,-17.2793960571289,0.345724761486053
306,-18.0884773662551,-17.5594043731689,0.266320288181305,-17.7201646090535,-17.2958641052246,0.212027832865715
307,-21.531954887218,-17.6112174987793,0.206731796264648,-16.5375939849624,-17.3036499023438,0.0985642448067665
308,-11.5,-17.5440540313721,0.269741088151932,-20.25,-17.3015727996826,0.0850169807672501
309,-16.0933734939759,-17.5163421630859,0.299735128879547,-13.5,-17.278491973877,0.0917846336960793
310,-18.8638613861386,-17.5333042144775,-0.172763481736183,-12.1509900990099,-17.2319831848145,0.0209486410021782
311,-14,-17.4879989624023,0.215319335460663,-12.75,-17.1820373535156,0.319250881671906
312,-16.25,-17.4746646881104,0.223706215620041,-17.75,-17.160758972168,0.192752569913864
313,-16.213963963964,-17.4694232940674,0.0144954510033131,-19.4436936936937,-17.1915493011475,0.191534012556076
314,-20.1664588528678,-17.5006828308105,-0.262786448001862,-22.2593516209476,-17.2088832855225,-0.272190153598785
315,-19,-17.4923496246338,0.316451251506805,-12.75,-17.1838836669922,0.231811106204987
316,-20.25,-17.51247215271,0.226752430200577,-12.905,-17.1482524871826,0.0908411890268326
317,-12.6052631578947,-17.4961433410645,3.04700183868408,-19.8421052631579,-17.1366806030273,0.177870631217957
318,-17.0852534562212,-17.4966354370117,0.0815680772066116,-11.8087557603687,-17.1281318664551,0.102014131844044
319,-24,-17.5462379455566,1.8052567243576,-13.2468152866242,-17.0883045196533,-0.0844025760889053
320,-20.25,-17.5586280822754,0.143907025456429,-12.75,-17.0202541351318,0.296601593494415
321,-20.4133858267717,-17.5578002929688,0.257043987512589,-8.94685039370079,-16.9625244140625,0.269704043865204
322,-17.9754098360656,-17.5357818603516,0.256131947040558,-16.6762295081967,-16.9514617919922,0.288122922182083
323,-15.8930817610063,-17.5323028564453,0.00967307202517986,-15.7704402515723,-16.9132652282715,0.0267686620354652
324,-18.3425196850394,-17.5513801574707,0.190733715891838,-16.3011811023622,-16.9142818450928,0.0854637920856476
325,-21.5,-17.5680465698242,0.0198950804769993,-17.9467455621302,-16.8989276885986,0.227984502911568
326,-17.7869822485207,-17.5741405487061,0.0527625605463982,-16.4585798816568,-16.8953170776367,0.0868029370903969
327,-16.5,-17.5612754821777,0.245204001665115,-16.5,-16.901741027832,0.0602808147668839
328,-15.25,-17.5514659881592,0.324883878231049,-17.75,-16.8775215148926,0.0911018550395966
329,-16.2521008403361,-17.5360450744629,0.208827286958694,-18.0735294117647,-16.8463439941406,-0.0976240783929825
330,-18.6128048780488,-17.5569629669189,0.314032346010208,-17.4512195121951,-16.8477687835693,0.230205595493317
331,-15.25,-17.5486297607422,0.287109613418579,-19,-16.8561019897461,0.276093274354935
332,-17.9945652173913,-17.5429878234863,0.256240725517273,-12.6032608695652,-16.826488494873,0.170188456773758
333,-18.25,-17.5242710113525,0.365689516067505,-19.0460526315789,-16.861213684082,0.19048298895359
334,-17.042899408284,-17.5028915405273,1.85228717327118,-18.8387573964497,-16.8768043518066,-0.150778532028198
335,-17.75,-17.51416015625,0.25167191028595,-16.5,-16.8675842285156,0.185904651880264
336,-14,-17.4974937438965,0.267404228448868,-16.5,-16.8592510223389,0.241698086261749
337,-13.0725108225108,-17.478630065918,0.168718591332436,-13.5865800865801,-16.8231601715088,0.19321508705616
338,-17,-17.5227012634277,-0.0368772335350513,-21.5,-16.8509979248047,-0.0861753895878792
339,-19.623595505618,-17.5676860809326,-0.140462756156921,-16.688202247191,-16.8530693054199,-0.359708279371262
340,-20.25,-17.6154155731201,0.705094218254089,-13.2307692307692,-16.8232002258301,1.72064733505249
341,-18.7687224669604,-17.5972061157227,-0.0168705880641937,-16.7455947136564,-16.8166122436523,0.177056878805161
342,-17,-17.5919017791748,0.120431609451771,-16.3152173913043,-16.8203792572021,-0.124387457966805
343,-19.3930481283422,-17.5778560638428,0.0215956103056669,-16.3569518716578,-16.8194255828857,0.0681112185120583
344,-19.1034482758621,-17.5868797302246,0.13059788942337,-21.2988505747126,-16.8487510681152,-0.572170197963715
345,-11.2766272189349,-17.5270576477051,0.175706550478935,-15.1316568047337,-16.822961807251,-0.348356813192368
346,-13.7036585365854,-17.4834156036377,0.521489560604095,-14.2926829268293,-16.8165798187256,-0.317270278930664
347,-17.8892694063927,-17.4719181060791,0.178072392940521,-19.9520547945205,-16.8399066925049,-0.258177280426025
348,-12.5526315789474,-17.4605693817139,9.07498359680176,-12.5921052631579,-16.8224277496338,0.758117914199829
349,-21.0873362445415,-17.4892768859863,0.314551264047623,-20.3646288209607,-16.8231925964355,-0.268649399280548
350,-17.75,-17.4942779541016,0.0880371183156967,-17.3977272727273,-16.8847103118896,-0.238768488168716
351,-15.5039682539683,-17.4795875549316,0.653869271278381,-15.7349206349206,-16.8866291046143,-0.061962403357029
352,-19.7911392405063,-17.4931964874268,0.198185190558434,-21.5,-16.9199619293213,-0.095795676112175
353,-20.25,-17.5353622436523,6.36288547515869,-17.9404761904762,-16.9416446685791,-0.275343626737595
354,-19.5851063829787,-17.5303478240967,0.0692132115364075,-16.718085106383,-16.9097633361816,0.0872900038957596
355,-16.1774891774892,-17.516284942627,-0.0106158927083015,-14.5887445887446,-16.880880355835,0.0944276973605156
356,-7.47674418604651,-17.4477958679199,0.308733284473419,-12.9651162790698,-16.8573150634766,-0.586335003376007
357,-16.5,-17.4382419586182,0.365300476551056,-15.25,-16.8368682861328,0.274694055318832
358,-16.7081005586592,-17.4368095397949,0.205735683441162,-18.6117318435754,-16.8568954467773,0.353491544723511
359,-19.7219626168224,-17.4417285919189,0.0541573241353035,-16.8481308411215,-16.8369007110596,-0.411231100559235
360,-17.0909090909091,-17.4236450195312,0.233546212315559,-22.75,-16.8935680389404,-0.247140675783157
361,-17.4611111111111,-17.4616565704346,0.29575788974762,-15.1388888888889,-16.8590145111084,0.0461044833064079
362,-17.75,-17.4866561889648,0.283012062311172,-16.5,-16.850679397583,0.284173429012299
363,-21.5,-17.5266571044922,0.152474716305733,-18.9691011235955,-16.8678073883057,0.0982927978038788
364,-22.75,-17.5885257720947,-0.164436474442482,-15.156652360515,-16.8399295806885,0.015692800283432
365,-19,-17.6255016326904,0.0896773338317871,-20.25,-16.8783950805664,0.19496063888073
366,-19.670245398773,-17.6484661102295,0.160274535417557,-16.5,-16.8897876739502,0.278057992458344
367,-19.5,-17.6934642791748,0.496147662401199,-14,-16.8897876739502,0.18562363088131
368,-18.4404761904762,-17.6675128936768,0.326506406068802,-10.8783068783069,-16.8259220123291,-0.165356606245041
369,-19.2295539033457,-17.6607093811035,0.992493867874146,-17.7704460966543,-16.826057434082,0.352681159973145
370,-21.5,-17.6915340423584,0.0911908000707626,-19,-16.84352684021,0.297580718994141
371,-15.6261682242991,-17.6917133331299,-0.0171306766569614,-19.5654205607477,-16.8779983520508,0.171225011348724
372,-17.75,-17.6685581207275,0.424033880233765,-8.93478260869565,-16.8048400878906,0.066534511744976
373,-18.659756097561,-17.661958694458,0.216011315584183,-17.4926829268293,-16.8106689453125,-0.142252832651138
374,-22.75,-17.7065715789795,0.234404683113098,-20.75,-16.8672409057617,0.0633120238780975
375,-18.288961038961,-17.69797706604,0.338889539241791,-12.5681818181818,-16.8171443939209,-0.100868135690689
376,-18.2506925207756,-17.6846485137939,1.01897549629211,-12.4418282548476,-16.7984237670898,-0.2059386074543
377,-18.15,-17.6905345916748,1.19835007190704,-18.95,-16.7839107513428,0.0173318758606911
378,-15.8136645962733,-17.6632194519043,0.547425448894501,-18.8136645962733,-16.8004093170166,0.205459892749786
379,-17.1683673469388,-17.6809463500977,0.150928899645805,-17.0010204081633,-16.8249340057373,0.0753050073981285
380,-15.25,-17.6718349456787,0.322848677635193,-16.5,-16.7832660675049,0.0977580398321152
381,-16.0593471810089,-17.6697368621826,0.0846278369426727,-18.9673590504451,-16.774715423584,0.0683044865727425
382,-19.6492248062016,-17.657398223877,-0.000402942299842834,-14.2713178294574,-16.7348575592041,-0.0440886691212654
383,-14.3997584541063,-17.6183967590332,0.20649266242981,-18.5966183574879,-16.8003845214844,-0.305473983287811
384,-15,-17.6167297363281,0.48723104596138,-19.5,-16.8287181854248,0.0640088468790054
385,-16.7645631067961,-17.6303615570068,-0.115101248025894,-18.5,-16.8253841400146,0.00521072745323181
386,-17.3322580645161,-17.615909576416,0.617469668388367,-15.4451612903226,-16.8045330047607,-0.184502124786377
387,-19.7592067988669,-17.6379261016846,0.121462382376194,-17.4943342776204,-16.8055534362793,-0.0512288808822632
388,-20.25,-17.6295928955078,0.15553891658783,-16.297619047619,-16.8125381469727,0.210196673870087
389,-17.2764976958525,-17.6147689819336,0.314430296421051,-13.0518433179724,-16.7797355651855,0.240722149610519
390,-15.4546783625731,-17.5844268798828,0.319705545902252,-10.5394736842105,-16.7524795532227,0.204985544085503
391,-18.3009259259259,-17.5979156494141,0.195850789546967,-16.587962962963,-16.7501010894775,0.114800594747066
392,-18.0392156862745,-17.6165447235107,0.456328630447388,-16.6862745098039,-16.7394981384277,0.353210151195526
393,-18.0172413793103,-17.6406116485596,-0.21896068751812,-18.8477011494253,-16.7220115661621,-0.0324403196573257
394,-17.75,-17.6206111907959,0.163504585623741,-16.5,-16.7057933807373,0.18427774310112
395,-18.7631578947368,-17.6506061553955,-0.0226268172264099,-18.2017543859649,-16.6899871826172,-0.323161840438843
396,-18.9448356807512,-17.6496315002441,0.0969845876097679,-15.212441314554,-16.6647357940674,-0.00668042153120041
397,-18.83,-17.6220684051514,0.0368445701897144,-20.32,-16.6785354614258,-0.170311778783798
398,-20.0412621359223,-17.6290111541748,-0.0299463085830212,-22.5728155339806,-16.7215709686279,-0.647816777229309
399,-21.5,-17.6506767272949,0.286511152982712,-19,-16.7349033355713,0.0580939650535583
400,-13.5179425837321,-17.6234302520752,0.479332059621811,-18.7870813397129,-16.7134838104248,0.158034384250641
401,-10.024861878453,-17.5745277404785,0.384174287319183,-19.9157458563536,-16.7054977416992,-0.772426187992096
402,-16.7286689419795,-17.5814971923828,3.58737111091614,-18.9564846416382,-16.7432823181152,1.70597004890442
403,-16.5372340425532,-17.568229675293,0.301578879356384,-21.5,-16.7520160675049,-0.230484768748283
404,-15.375786163522,-17.5524024963379,0.282827496528625,-14.6493710691824,-16.7313461303711,-0.0216673985123634
405,-19.4019337016575,-17.5738277435303,0.128097757697105,-21.5,-16.7313461303711,-0.524860978126526
406,-19.0682451253482,-17.5997524261475,0.575940668582916,-13.2715877437326,-16.6921615600586,0.00754179805517197
407,-12.4423076923077,-17.6033535003662,-0.125717177987099,-16.1479289940828,-16.6686115264893,-0.0569683760404587
408,-16.5,-17.6022281646729,0.305357933044434,-14,-16.6674861907959,0.296700477600098
409,-17.7753623188406,-17.595775604248,0.753405690193176,-17.75,-16.693380355835,-0.121357008814812
410,-12.0516129032258,-17.5639324188232,1.06650006771088,-21.5,-16.72780418396,-0.0632295981049538
411,-24,-17.5900897979736,0.994842231273651,-15.7183544303797,-16.7402954101562,0.353891283273697
412,-18.0909090909091,-17.567361831665,0.449882745742798,-13.75,-16.7219619750977,-0.2554612159729
413,-15.56,-17.5527610778809,0.193486377596855,-17.7828571428571,-16.7188491821289,0.147696375846863
414,-17.2763713080169,-17.5542125701904,7.09123754501343,-18.25,-16.7273597717285,0.767571568489075
415,-15.1276978417266,-17.5304889678955,0.842481136322021,-15.9568345323741,-16.7233142852783,-0.068114846944809
416,-20.25,-17.5510158538818,0.198322832584381,-15.9727272727273,-16.7409381866455,-0.163446068763733
417,-13.1169590643275,-17.5021800994873,0.148147404193878,-20.25,-16.7817058563232,-0.120694406330585
418,-17.5,-17.5338459014893,0.62844717502594,-19,-16.7900390625,0.337142288684845
419,-22.9537037037037,-17.5437507629395,0.753181397914886,-16.3333333333333,-16.7719917297363,-0.0602659359574318
420,-13.3794117647059,-17.4973335266113,0.73846846818924,-14.0970588235294,-16.7443065643311,-0.0450891181826591
421,-16.125,-17.5318698883057,0.374352961778641,-14.96875,-16.7707748413086,0.0975907295942307
422,-20.25,-17.561149597168,4.24217176437378,-12.8636363636364,-16.7416896820068,-0.38373675942421
423,-13.3782383419689,-17.5640125274658,0.325685322284698,-18.5466321243523,-16.7436695098877,0.0706991702318192
424,-14.359756097561,-17.50807762146,2.92296385765076,-20.0060975609756,-16.7733879089355,-0.319028496742249
425,-13.1420187793427,-17.444278717041,0.224718376994133,-11.1161971830986,-16.7213020324707,-0.361137270927429
426,-19.5,-17.4586639404297,0.227767676115036,-19.625,-16.7343292236328,-0.232680112123489
427,-18.9385964912281,-17.4664421081543,0.261511653661728,-15.9122807017544,-16.697078704834,0.32908695936203
428,-16.5,-17.4546775817871,0.428893893957138,-17.75,-16.6792144775391,0.25389501452446
429,-16.5,-17.4405174255371,0.372316718101501,-20.25,-16.6925468444824,0.265106618404388
430,-12.3970588235294,-17.4011936187744,0.578334391117096,-8.67647058823529,-16.638032913208,0.188164815306664
431,-15.25,-17.3947162628174,0.473795026540756,-16.5,-16.6164436340332,0.134247809648514
432,-15.05,-17.3783836364746,0.351189166307449,-18.9,-16.6262702941895,0.255012094974518
433,-17.75,-17.3573684692383,0.459302991628647,-15.25,-16.6030502319336,0.187067329883575
434,-16.5,-17.3351173400879,0.184983298182487,-14.370253164557,-16.6130905151367,0.179595053195953
435,-14.5,-17.3051166534424,0.338572978973389,-14.1946107784431,-16.5977210998535,0.792235314846039
436,-20.25,-17.3267841339111,0.647304654121399,-16.6735294117647,-16.5824737548828,-0.0690231397747993
437,-13.9318181818182,-17.2846622467041,0.919260740280151,-9.49090909090909,-16.5107460021973,0.675639986991882
438,-15.25,-17.2624034881592,0.304591745138168,-16.5,-16.5315685272217,0.114949494600296
439,-20.25,-17.3006992340088,0.306027859449387,-20.25,-16.5365695953369,0.102332085371017
440,-14.2264397905759,-17.3012447357178,9.5932445526123,-19.315445026178,-16.554048538208,1.70516693592072
441,-19,-17.3096828460693,0.289015620946884,-15.25,-16.5892677307129,0.259423494338989
442,-13.4512820512821,-17.2860240936279,3.12990474700928,-18.1923076923077,-16.6022167205811,0.600319981575012
443,-16.5,-17.2917537689209,0.347891062498093,-19,-16.6182956695557,0.274647057056427
444,-16.4047619047619,-17.2661190032959,1.84794509410858,-13.8738095238095,-16.6007881164551,-0.337510406970978
445,-14.4059405940594,-17.2610168457031,0.445768415927887,-15.1089108910891,-16.5874786376953,0.0253672003746033
446,-17.1847826086956,-17.2636394500732,2.3664653301239,-22.75,-16.6224308013916,-0.0183063149452209
447,-17.5657894736842,-17.2377662658691,0.0116396425291896,-19.0263157894737,-16.6276054382324,0.20652163028717
448,-15.25,-17.2344341278076,0.231269061565399,-14,-16.6150054931641,0.302886754274368
449,-18.5488505747126,-17.2570571899414,0.20254822075367,-12.1350574712644,-16.575756072998,0.267552405595779
450,-15.8744186046512,-17.2278881072998,-0.0242802128195763,-11.5581395348837,-16.5511455535889,0.192029148340225
451,-16.4304511278195,-17.2526760101318,0.194118157029152,-18.0018796992481,-16.5611572265625,0.0839954018592834
452,-14,-17.224910736084,0.316874653100967,-16.5,-16.5770664215088,0.234583497047424
453,-17,-17.2092895507812,2.46037149429321,-6.73809523809524,-16.516845703125,-0.246165856719017
454,-22.75,-17.2469081878662,0.897144019603729,-15.75,-16.5502986907959,0.341765701770782
455,-22.75,-17.3098258972168,0.255940735340118,-7.46932515337423,-16.4917602539062,0.348661065101624
456,-17.5,-17.3059024810791,0.370566874742508,-18.6342281879195,-16.4978542327881,0.178401917219162
457,-11.7427184466019,-17.2406406402588,0.37546718120575,-16.6796116504854,-16.4988021850586,-0.294709116220474
458,-15.4285714285714,-17.2668323516846,0.265507429838181,-18.7989795918367,-16.489128112793,0.262343943119049
459,-18.9444444444444,-17.2858390808105,0.284563511610031,-12.8148148148148,-16.4845600128174,-0.0928052887320518
460,-16.5,-17.2700805664062,0.406491786241531,-14,-16.4968852996826,-0.00388059020042419
461,-22.1622807017544,-17.3244953155518,0.45856112241745,-15.2236842105263,-16.5133762359619,0.00158272683620453
462,-19.679347826087,-17.3473587036133,0.449839651584625,-12.7880434782609,-16.480297088623,-0.303768694400787
463,-13.0909090909091,-17.3265380859375,0.334578365087509,-14.2272727272727,-16.445520401001,-0.135538950562477
464,-19,-17.3187618255615,0.388544619083405,-19,-16.423791885376,0.331949859857559
465,-21.357476635514,-17.3344783782959,-0.127719908952713,-15.9672897196262,-16.445240020752,-0.622304260730743
466,-13.9122807017544,-17.2922267913818,0.199404686689377,-13.6359649122807,-16.4501132965088,-0.294647514820099
467,-13.6957671957672,-17.2994956970215,0.179448887705803,-15.9404761904762,-16.4241046905518,-0.155957534909248
468,-13.7103658536585,-17.2769947052002,0.526690542697906,-13.9756097560976,-16.438549041748,-0.0959722623229027
469,-18.9841463414634,-17.243558883667,0.235999032855034,-14.2585365853659,-16.4452953338623,0.503264665603638
470,-16.9694835680751,-17.2216873168945,0.116612315177917,-19.843896713615,-16.4925880432129,0.0409515053033829
471,-21.5,-17.228931427002,0.261331498622894,-15.25,-16.5346088409424,0.22528575360775
472,-15.9082840236686,-17.2151508331299,-0.0410301871597767,-10.3550295857988,-16.492467880249,-0.637720882892609
473,-15.75,-17.2141952514648,1.05843460559845,-13.2282051282051,-16.4755172729492,-0.167931973934174
474,-18.25,-17.2135810852051,0.356311202049255,-17,-16.4801750183105,0.764960408210754
475,-12.75,-17.1552467346191,0.34928822517395,-14,-16.4538631439209,0.243974164128304
476,-11.0985714285714,-17.1106567382812,0.247156113386154,-18.25,-16.4658069610596,0.104946196079254
477,-15.25,-17.1023235321045,0.309388190507889,-19,-16.4824771881104,0.278102219104767
478,-12.8478260869565,-17.0863094329834,-0.013813178986311,-14.8152173913043,-16.4629096984863,1.20817935466766
479,-14.8623595505618,-17.0770435333252,0.20229272544384,-10.4241573033708,-16.4119148254395,-0.0853847563266754
480,-16.3524390243902,-17.061975479126,0.127456724643707,-12.540243902439,-16.3791732788086,0.269122898578644
481,-15.9092827004219,-17.066370010376,4.231773853302,-18.9356540084388,-16.3787460327148,0.755901217460632
482,-14,-17.0397396087646,0.346776276826859,-16.5,-16.4047241210938,0.238440647721291
483,-17.5427927927928,-17.035026550293,0.337984263896942,-15.5563063063063,-16.3814582824707,-0.421755790710449
484,-18.01,-17.0414733886719,0.0435861274600029,-13.805,-16.347900390625,0.100304260849953
485,-15.75,-17.0281391143799,1.41759777069092,-15.5909090909091,-16.3418388366699,-0.246711432933807
486,-18.0348837209302,-17.0550384521484,0.429438382387161,-15.6860465116279,-16.3364124298096,-0.248066037893295
487,-18.0833333333333,-17.0884437561035,0.202628463506699,-15.771645021645,-16.350980758667,-0.0639359578490257
488,-20.25,-17.1101112365723,1.41210949420929,-13.6095238095238,-16.298376083374,0.26661428809166
489,-14,-17.0726203918457,0.241069167852402,-20.25,-16.3221225738525,0.0126034766435623
490,-10.25,-17.005952835083,0.35684397816658,-17.75,-16.3522529602051,0.252038717269897
491,-20.75,-17.0191612243652,-0.149854868650436,-15.75,-16.3456153869629,0.136288493871689
492,-17.2065217391304,-17.0205383300781,0.072941780090332,-16.7826086956522,-16.3487300872803,0.13329915702343
493,-15.2374100719424,-16.9928359985352,-0.0179138705134392,-14.5629496402878,-16.3367710113525,0.218023017048836
494,-19,-16.9921455383301,0.420640647411346,-19,-16.3214454650879,0.375995308160782
495,-17.2626050420168,-17.0320510864258,-0.559659361839294,-12.4894957983193,-16.3038272857666,0.136575311422348
496,-17.1545454545455,-17.0550575256348,0.0761821642518044,-16.0454545454545,-16.3155136108398,-0.0782816261053085
497,-19.2916666666667,-17.0644073486328,-0.321081966161728,-10.3541666666667,-16.2515296936035,-0.41988542675972
498,-15.2378048780488,-17.0823078155518,0.504445672035217,-17,-16.2809143066406,-0.095641016960144
499,-8.02662721893491,-16.9952354431152,1.64106225967407,-14.3328402366864,-16.2407035827637,0.132773131132126
500,-11.7075208913649,-16.9549522399902,0.579800069332123,-18.0828690807799,-16.2452697753906,-0.170293152332306
501,-9.6705069124424,-16.9160652160645,0.0597379207611084,-16.8283410138249,-16.2525596618652,-0.0427199900150299
502,-18.2611731843575,-16.9058647155762,0.148788630962372,-13.75,-16.2008934020996,0.411964058876038
503,-19,-16.8975315093994,0.283849835395813,-14.6183431952663,-16.1787452697754,0.269126534461975
504,-14.3168316831683,-16.8624095916748,0.138730749487877,-14.2029702970297,-16.1619777679443,-0.0555649250745773
505,-14.15,-16.8488922119141,0.253202050924301,-13.6352941176471,-16.1556224822998,-0.141028434038162
506,-18.25,-16.9207134246826,0.649250388145447,-13.6506849315068,-16.160192489624,0.961682558059692
507,-20.25,-16.9457130432129,0.284755647182465,-21.0847639484979,-16.1990909576416,-0.315120726823807
508,-24,-16.9943256378174,-0.00699746236205101,-19.4415584415584,-16.2046222686768,0.109381571412086
509,-20.25,-16.9978466033936,0.0655386224389076,-16.5,-16.2023029327393,0.308861911296844
510,-21.5,-17.0272407531738,0.110931813716888,-13.8351063829787,-16.1428718566895,-0.0064505934715271
511,-19.5,-17.0408325195312,0.780148148536682,-14.8232044198895,-16.1407642364502,-0.236887514591217
512,-16.5,-17.0324993133545,0.531226098537445,-17.75,-16.149097442627,0.227434352040291
513,-14.5804347826087,-16.9863681793213,0.314939081668854,-5.03695652173913,-16.0562171936035,0.0141589194536209
514,-17.2901069518717,-16.9499683380127,0.0787450075149536,-9.42914438502674,-16.0180339813232,0.253888189792633
515,-15.75,-16.9283027648926,0.178865596652031,-9.60059171597633,-15.9470376968384,0.185992807149887
516,-14.5,-16.893835067749,0.403706699609756,-15.7689873417722,-15.9421644210815,-0.0121306478977203
517,-17.6576086956522,-16.8815536499023,0.362706810235977,-15.0652173913043,-15.9492673873901,-0.155104756355286
518,-14.776706231454,-16.8571281433105,0.270822405815125,-16.9799703264095,-15.9899444580078,0.322086036205292
519,-16.5,-16.8389301300049,0.404850125312805,-9,-15.9314746856689,0.346486359834671
520,-14.7083333333333,-16.7936515808105,0.254479795694351,-15.3935185185185,-15.907431602478,-0.0737664550542831
521,-11.7251308900524,-16.7676467895508,4.5282506942749,-10.6452879581152,-15.8479652404785,-0.00104713439941406
522,-11.5814606741573,-16.7265243530273,0.757729470729828,-14.0252808988764,-15.8819007873535,-0.272022485733032
523,-15.25,-16.7037906646729,0.377570241689682,-14,-15.8586168289185,0.282144904136658
524,-17.3629032258065,-16.6678771972656,0.322149515151978,-13.1951612903226,-15.8082504272461,-0.578179776668549
525,-6.75,-16.590950012207,0.294276714324951,-16.3125,-15.8332109451294,0.00914628803730011
526,-17.9180327868852,-16.5887317657471,0.435263782739639,-18.0901639344262,-15.8708658218384,0.0201443135738373
527,-15.4307228915663,-16.5706043243408,0.368525862693787,-14.5481927710843,-15.8415203094482,-0.244392901659012
528,-17.75,-16.5835132598877,0.333418041467667,-16.1149425287356,-15.8235282897949,-0.0527697056531906
529,-15.25,-16.5707225799561,0.400831282138824,-17.75,-15.8285217285156,0.0901319682598114
530,-16.9879912663755,-16.5823097229004,0.257610708475113,-15.7139737991266,-15.8232831954956,0.216093614697456
531,-15.7181303116147,-16.5800361633301,0.462655484676361,-21.3307365439093,-15.8390398025513,-0.0752269849181175
532,-11.8710691823899,-16.5281810760498,0.404902666807175,-11.812893081761,-15.8226499557495,0.0846751630306244
533,-19.4117647058824,-16.561595916748,0.442484110593796,-15.9901960784314,-15.8052730560303,0.214513972401619
534,-13.8143274853801,-16.553689956665,0.267912238836288,-17.0804093567251,-15.7891435623169,-0.494702458381653
535,-11.5,-16.5185928344727,0.352164804935455,-14,-15.7591438293457,0.280753314495087
536,-17.75,-16.5213794708252,0.349238365888596,-16.5,-15.7661752700806,0.37303763628006
537,-17.75,-16.507984161377,0.371962279081345,-11.7763157894737,-15.7280569076538,0.0723238289356232
538,-15.375786163522,-16.4754886627197,0.291316390037537,-12.8349056603774,-15.7049703598022,0.141613930463791
539,-10.758865248227,-16.4320373535156,0.281175464391708,-20.5248226950355,-15.7547912597656,-0.153049379587173
540,-15.274861878453,-16.4308395385742,0.144707426428795,-15.6961325966851,-15.7891683578491,-0.313103407621384
541,-18.25,-16.4305000305176,0.531409323215485,-16.9466292134831,-15.7915592193604,-0.238234370946884
542,-17.1184210526316,-16.4243602752686,1.08648562431335,-16.2763157894737,-15.7888269424438,2.44799208641052
543,-15.056338028169,-16.4046211242676,0.292425960302353,-14.5457746478873,-15.7601480484009,0.305037558078766
544,-16.5970873786408,-16.3969345092773,0.406574279069901,-18.6529126213592,-15.7744998931885,0.0803853422403336
545,-12.5865800865801,-16.3557586669922,0.289213061332703,-13.1969696969697,-15.7411346435547,0.299914598464966
546,-10.195652173913,-16.2974319458008,0.386028051376343,-16.8804347826087,-15.752254486084,0.0719569027423859
547,-19,-16.2985649108887,0.459658652544022,-14,-15.7101202011108,0.0595977306365967
548,-19.5,-16.2949562072754,0.299855977296829,-13.744094488189,-15.6512632369995,0.0997664779424667
549,-14.9777070063694,-16.2514724731445,0.66736888885498,-11.9490445859873,-15.6042566299438,-0.321683555841446
550,-21.4710144927536,-16.3044929504395,1.42025113105774,-13.7065217391304,-15.5703859329224,-0.493731379508972
551,-14.9325396825397,-16.3372097015381,0.030283696949482,-16.6534391534392,-15.5486373901367,0.0216293334960938
552,-22.6071428571429,-16.3763999938965,0.494137138128281,-9.41071428571428,-15.4849987030029,-0.057603120803833
553,-15.0681818181818,-16.3666076660156,0.400757282972336,-8.4512987012987,-15.3980073928833,-0.0233671963214874
554,-15.4909090909091,-16.367374420166,0.257695019245148,-16.4681818181818,-15.4101333618164,0.783712208271027
555,-16.75,-16.3496952056885,0.279210448265076,-20.8289473684211,-15.4056577682495,-0.247757345438004
556,-13.1483790523691,-16.310230255127,0.739356517791748,-13.0081047381546,-15.4039030075073,-0.714529156684875
557,-12.8324099722992,-16.3128299713135,1.12468707561493,-16.9709141274238,-15.409387588501,-0.00516574084758759
558,-16.9772727272727,-16.316011428833,1.14317882061005,-11.4545454545455,-15.3924188613892,0.153974145650864
559,-18.2129186602871,-16.3189296722412,0.350160092115402,-18.5777511961723,-15.3979396820068,0.282793045043945
560,-18.6255813953488,-16.3627548217773,0.307971209287643,-12.6244186046512,-15.3387660980225,0.113154739141464
561,-16.331746031746,-16.3116340637207,0.524308085441589,-15.3285714285714,-15.3361682891846,0.292034983634949
562,-17.0474683544304,-16.3046779632568,0.42112135887146,-14.626582278481,-15.3420133590698,0.182675182819366
563,-15.5327102803738,-16.3044948577881,0.407326310873032,-12.9672897196262,-15.3099088668823,0.199673742055893
564,-16.2413793103448,-16.2975959777832,0.0837679356336594,-13.0402298850575,-15.2751770019531,-0.216583430767059
565,-15.7765957446809,-16.3019199371338,0.454702377319336,-16.6063829787234,-15.2795085906982,0.215547665953636
566,-12.75,-16.2519207000732,0.352420896291733,-12.75,-15.2580242156982,0.330121874809265
567,-15.25,-16.2661418914795,0.404505103826523,-17.75,-15.2413578033447,0.321542471647263
568,-16.3106936416185,-16.2582130432129,0.401225328445435,-17.521676300578,-15.2315006256104,0.127157881855965
569,-7.88636363636364,-16.1577644348145,1.33415246009827,-16.0681818181818,-15.2297334671021,-0.00634483993053436
570,-18.475,-16.1917343139648,0.392050474882126,-14.725,-15.2339191436768,0.164770036935806
571,-17,-16.1975688934326,0.391461968421936,-10.2775590551181,-15.2026453018188,0.41324508190155
572,-16.3118811881188,-16.171314239502,0.829449534416199,-16.8440594059406,-15.2291812896729,-0.0128250122070312
573,-14.6328996282528,-16.1796779632568,0.110763691365719,-13.9526022304833,-15.1985549926758,-0.00471377372741699
574,-17.9939759036145,-16.2039070129395,0.661673843860626,-20.25,-15.2001791000366,-0.163554787635803
575,-17.8636363636364,-16.2353839874268,-0.0325409770011902,-17.5909090909091,-15.2433443069458,-0.172763168811798
576,-16.9205069124424,-16.218189239502,-0.00369694083929062,-15.4354838709677,-15.2154130935669,0.0433841645717621
577,-15.5333333333333,-16.1954860687256,0.195522576570511,-15.4666666666667,-15.2124433517456,-0.0928042754530907
578,-19.7969283276451,-16.2174663543701,0.866897225379944,-20.0699658703072,-15.2279100418091,1.43137037754059
579,-16.4024390243902,-16.2168140411377,0.39358589053154,-13.3170731707317,-15.1816892623901,0.246293798089027
580,-18.25,-16.2558345794678,0.33791595697403,-12.9466666666667,-15.2101593017578,0.245803996920586
581,-13.9306451612903,-16.2470397949219,0.115666642785072,-11.8177419354839,-15.1789455413818,0.839236319065094
582,-19.5,-16.276704788208,0.349399834871292,-18.1821705426357,-15.1741600036621,-0.157969579100609
583,-15.1615226337449,-16.259449005127,0.334720015525818,-15.4526748971193,-15.1755113601685,-0.0843149721622467
584,-16.9088235294118,-16.2621746063232,0.210542395710945,-11.5264705882353,-15.1565523147583,0.050100177526474
585,-14.6968599033816,-16.2634868621826,0.18153315782547,-17.1099033816425,-15.175986289978,-0.427101373672485
586,-19.5,-16.2584857940674,0.286561518907547,-16.4408284023669,-15.1744365692139,-0.165895119309425
587,-16.3357142857143,-16.2745113372803,1.05126774311066,-14.1428571428571,-15.2054491043091,0.179024189710617
588,-16.7123655913978,-16.2842617034912,0.259079128503799,-8.61559139784946,-15.1528844833374,0.109068721532822
589,-19,-16.2759284973145,0.491975039243698,-21.5,-15.1612176895142,0.451497912406921
590,-20.8684210526316,-16.3202075958252,0.134049236774445,-13.3355263157895,-15.1213512420654,0.0768069177865982
591,-17.75,-16.3118743896484,0.131392657756805,-20.25,-15.1546840667725,0.423645824193954
592,-13.0555555555556,-16.3092365264893,0.23664852976799,-13.8771929824561,-15.1259183883667,0.278023958206177
593,-14.1063218390805,-16.2932777404785,0.322820514440536,-14.6063218390805,-15.0966272354126,0.0409183353185654
594,-11.8689427312775,-16.2630405426025,0.339559197425842,-16.9856828193833,-15.1173734664917,0.0463303476572037
595,-10.5012953367876,-16.2370090484619,0.138132825493813,-13.4818652849741,-15.1065263748169,0.160267546772957
596,-19,-16.2491092681885,0.390558898448944,-17.75,-15.0731935501099,0.319586962461472
597,-13.634703196347,-16.2229022979736,0.350628346204758,-14.4805936073059,-15.0428876876831,0.0185540765523911
598,-16.5,-16.2312355041504,0.45302677154541,-22.75,-15.1012210845947,0.0998879373073578
599,-16.5,-16.2175769805908,0.307820081710815,-20.25,-15.1553201675415,0.216880723834038
600,-14.0434131736527,-16.2053718566895,0.574412524700165,-16.5973053892216,-15.1889142990112,0.115083917975426
601,-15,-16.1958332061768,0.454478591680527,-17.078431372549,-15.1827583312988,0.279899656772614
602,-12.75,-16.1875,0.454201310873032,-11.5,-15.1494255065918,0.395971775054932
603,-24,-16.234167098999,0.0544883534312248,-15.7029702970297,-15.2091913223267,0.181520342826843
604,-21.8294930875576,-16.2280311584473,0.271287232637405,-16.4205069124424,-15.2136602401733,0.0537252277135849
605,-11.6710526315789,-16.1541709899902,1.8414249420166,-13.0657894736842,-15.2509717941284,1.78140437602997
606,-15.1220930232558,-16.1383190155029,0.329878449440002,-20.75,-15.2650766372681,0.229747399687767
607,-14.5116033755274,-16.1567764282227,2.82298016548157,-11.8660337552743,-15.2329864501953,1.63428139686584
608,-9.21264367816092,-16.1153392791748,0.182961359620094,-14.9454022988506,-15.20729637146,0.283675849437714
609,-19.2173913043478,-16.1171588897705,0.348045140504837,-17.1847826086956,-15.2364292144775,0.237928852438927
610,-15.25,-16.1088256835938,0.430373191833496,-14,-15.2364292144775,0.332843571901321
611,-16.5,-16.0710754394531,0.501389920711517,-19,-15.2616033554077,0.377225160598755
612,-13.2777777777778,-16.0283985137939,0.34512859582901,-15.3722222222222,-15.2788314819336,-0.0155899822711945
613,-15.25,-16.0427932739258,0.394070208072662,-14,-15.2773160934448,0.148490756750107
614,-10.609102244389,-15.9868535995483,0.104123018682003,-20.359102244389,-15.286376953125,0.187500432133675
615,-17.75,-15.9628028869629,0.453897953033447,-19,-15.3065948486328,0.351066887378693
616,-15.1588235294118,-15.9711132049561,0.519125521183014,-10.1735294117647,-15.2835121154785,0.00760331749916077
617,-17.75,-15.9981412887573,0.469756901264191,-16.5,-15.2872428894043,0.372471809387207
618,-17.7632158590308,-16.0251636505127,0.0270923227071762,-16.2213656387665,-15.3022136688232,-0.853967905044556
619,-17.3553459119497,-16.0143032073975,-0.0143119692802429,-15.627358490566,-15.3113412857056,-0.0774992406368256
620,-11.0451219512195,-15.9748067855835,0.00579337030649185,-15.8073170731707,-15.2844305038452,0.0505771189928055
621,-13.4958448753463,-15.9214448928833,1.95086479187012,-19.3656509695291,-15.3118648529053,-0.181280761957169
622,-17.1439024390244,-15.9296827316284,0.0606365874409676,-12.9829268292683,-15.329384803772,-0.0967959985136986
623,-14,-15.9180154800415,0.539080202579498,-15.25,-15.3428649902344,0.328580409288406
624,-13.8617747440273,-15.8887615203857,2.41901707649231,-16.1757679180887,-15.3373699188232,1.43749260902405
625,-19,-15.9304285049438,0.420887321233749,-15.25,-15.345703125,0.309258460998535
626,-14.6510791366906,-15.9541110992432,0.633184432983398,-20.2823741007194,-15.3592529296875,0.134091600775719
627,-6.16666666666667,-15.8935546875,0.29622483253479,-9.98671497584541,-15.2991638183594,0.00111018121242523
628,-18.6809523809524,-15.9324417114258,0.286302089691162,-14.15,-15.2947301864624,0.334466725587845
629,-13.4870466321244,-15.9232749938965,0.0202293656766415,-13.6891191709845,-15.3164958953857,-0.0106130093336105
630,-14.7378048780488,-15.9125099182129,0.354402393102646,-18.1737804878049,-15.3540525436401,-0.548017799854279
631,-19.6271929824561,-15.937294960022,0.405549764633179,-16.6710526315789,-15.3389549255371,0.0761927664279938
632,-16.3306451612903,-15.9528341293335,0.230762749910355,-19.5887096774194,-15.3595457077026,-0.0107799917459488
633,-14,-15.9292154312134,0.366553008556366,-16.5,-15.3658361434937,0.21434673666954
634,-18.7978723404255,-15.9344673156738,0.422366440296173,-14.436170212766,-15.3700456619263,0.311404407024384
635,-14.4724409448819,-15.925950050354,0.333907127380371,-16.494094488189,-15.3760681152344,-0.171048387885094
636,-13.7454545454545,-15.8973531723022,0.0477489233016968,-16.1772727272727,-15.3793420791626,-0.182259261608124
637,-12.8470873786408,-15.8624458312988,0.372438937425613,-18.9441747572816,-15.4004917144775,0.070486769080162
638,-15.620253164557,-15.831582069397,0.250717163085938,-18.25,-15.4314289093018,-0.183196574449539
639,-16.5530303030303,-15.8486022949219,0.225239306688309,-18.4848484848485,-15.4196615219116,0.357099890708923
640,-20.9886363636364,-15.9201936721802,0.16613832116127,-22.75,-15.4529943466187,0.0844897478818893
641,-15.1509900990099,-15.8828659057617,0.260324656963348,-15.3490099009901,-15.4503202438354,-0.692530333995819
642,-19.7189349112426,-15.8996162414551,0.279731243848801,-16.8372781065089,-15.4506855010986,-0.44329971075058
643,-10.1160220994475,-15.8654737472534,-0.0521620362997055,-11.0704419889503,-15.4274024963379,-0.555931568145752
644,-12.75,-15.8238067626953,0.410510659217834,-16.5,-15.4107360839844,0.292434573173523
645,-18.3779069767442,-15.831241607666,-0.210138261318207,-7.56976744186047,-15.3779382705688,0.177567258477211
646,-17.75,-15.8352117538452,0.441913396120071,-16.5,-15.3809680938721,0.300501763820648
647,-18.5482456140351,-15.8302555084229,0.210670053958893,-16.8947368421053,-15.4245719909668,-1.39479029178619
648,-20.2574183976261,-15.8637189865112,0.39605250954628,-15.473293768546,-15.4143943786621,-0.365603417158127
649,-13.5303738317757,-15.9004096984863,0.461096227169037,-15.5957943925234,-15.422812461853,-0.25784707069397
650,-16.4090909090909,-15.9317541122437,0.259800374507904,-19.4590909090909,-15.4319887161255,0.325168579816818
651,-19.4737569060773,-15.997109413147,0.471172004938126,-20.1367403314917,-15.454044342041,-0.308709293603897
652,-12.6016129032258,-15.9593782424927,-0.187911376357079,-20.6838709677419,-15.5002698898315,-0.911172866821289
653,-18.4868421052632,-15.9559574127197,0.15552981197834,-12.3464912280702,-15.4851236343384,0.0133761465549469
654,-14.84375,-15.9594697952271,0.254158914089203,-15.8125,-15.4958543777466,0.350371778011322
655,-17.6301775147929,-15.9826726913452,0.0197992548346519,-20.2100591715976,-15.5396862030029,-0.194188579916954
656,-11.5414012738853,-15.9379472732544,2.04184198379517,-11.4140127388535,-15.5247755050659,-0.899619281291962
657,-15.25,-15.9046144485474,0.447008222341537,-15.25,-15.4858770370483,0.298977881669998
658,-15.1436170212766,-15.8455715179443,0.376031458377838,-13.1329787234043,-15.4438199996948,0.171563401818275
659,-21.5,-15.8539047241211,0.300297349691391,-16.5758426966292,-15.4443244934082,0.341473698616028
660,-11.9319526627219,-15.7901172637939,0.409956306219101,-17.0369822485207,-15.4656705856323,0.243198618292809
661,-18.25,-15.7817840576172,0.622150182723999,-17.5425531914894,-15.4837989807129,0.283118963241577
662,-15.5,-15.7751169204712,0.185052528977394,-10.3815789473684,-15.4346761703491,0.377151429653168
663,-13.6522556390977,-15.7689294815063,0.190946623682976,-20.75,-15.5394306182861,-0.036664605140686
664,-14.2865168539326,-15.7489061355591,0.0320464745163918,-15.9044943820225,-15.5825996398926,-0.148204892873764
665,-14.5,-15.7405729293823,0.33628311753273,-12.945652173913,-15.6049003601074,-0.490519851446152
666,-21.4988372093023,-15.7872314453125,0.274806380271912,-12.0011627906977,-15.5797815322876,-0.00710554420948029
667,-20.25,-15.8045148849487,0.28236585855484,-16.5147058823529,-15.5894451141357,-0.195028811693192
668,-19,-15.8326692581177,0.338565558195114,-14,-15.5695781707764,0.23357917368412
669,-16.5,-15.8326692581177,0.515557289123535,-17.75,-15.627911567688,0.2908855676651
670,-12.1601731601732,-15.8156824111938,0.422631949186325,-18.4880952380952,-15.6485414505005,0.0789243280887604
671,-17.9166666666667,-15.8569583892822,0.429343372583389,-9.8287037037037,-15.6430988311768,0.205225586891174
672,-16.2967422096317,-15.8883934020996,0.435729950666428,-10.4107648725212,-15.6190023422241,0.0312688201665878
673,-17.75,-15.9050598144531,0.385627806186676,-12.75,-15.6106691360474,0.331443399190903
674,-22.6536312849162,-15.9403324127197,0.695017397403717,-11.8603351955307,-15.6017694473267,0.420544177293777
675,-16.5,-16.0053329467773,0.417036801576614,-12.75,-15.5780191421509,0.366135030984879
676,-15.0390243902439,-15.9861392974854,0.359292656183243,-15.3524390243902,-15.5597677230835,0.339041531085968
677,-20.25,-16.0182685852051,0.594654738903046,-15,-15.562780380249,-0.361878573894501
678,-12.75,-15.9849348068237,0.432047635316849,-12.75,-15.5403470993042,0.375238478183746
679,-11.3279944289694,-15.9587869644165,0.438601046800613,-13.7883008356546,-15.5139350891113,0.336256325244904
680,-11.5,-15.9222002029419,0.474189102649689,-15.25,-15.5108413696289,0.355817198753357
681,-17.4126506024096,-15.933497428894,0.337589949369431,-18.7198795180723,-15.4934358596802,-0.126461267471313
682,-20.25,-15.9893589019775,0.452506929636002,-10.25,-15.4830179214478,0.251011341810226
683,-22.75,-16.0116138458252,0.519455671310425,-10.25,-15.444748878479,0.452093780040741
684,-13.06,-16.0065841674805,0.203429132699966,-9.61428571428571,-15.3949737548828,0.241342350840569
685,-13,-16.0165843963623,0.305872082710266,-13.9719626168224,-15.3947868347168,0.155788987874985
686,-12.4565217391304,-15.9812936782837,0.277680724859238,-14.4152173913043,-15.3808889389038,0.115293711423874
687,-11.8577844311377,-15.9420118331909,0.379225105047226,-10.1526946107784,-15.3700647354126,1.07422828674316
688,-14.6043689320388,-15.9368686676025,0.457130879163742,-14.0485436893204,-15.378155708313,-0.0795151889324188
689,-14.0414438502674,-15.9587535858154,0.431555092334747,-14.870320855615,-15.3404588699341,0.135934591293335
690,-19,-15.9835872650146,-0.0977151170372963,-9.8421052631579,-15.3014326095581,0.0400211811065674
691,-19,-15.9885873794556,0.376550763845444,-10.2469879518072,-15.2567672729492,0.101158902049065
692,-21.5,-16.0177974700928,0.708016991615295,-18.25,-15.2699251174927,0.309517830610275
693,-16.4055793991416,-16.0267944335938,0.259532243013382,-17.5643776824034,-15.2900485992432,0.20823310315609
694,-15.25,-16.0178127288818,0.0215797442942858,-13.8791208791209,-15.2582244873047,0.803266644477844
695,-13.873417721519,-16.0263900756836,0.409802615642548,-9.04113924050633,-15.2305192947388,0.328437030315399
696,-13.2016728624535,-16.0464305877686,0.755758821964264,-11.9618959107807,-15.1977281570435,0.193240240216255
697,-20.15,-16.0540962219238,4.55622291564941,-16.8571428571429,-15.2167778015137,-0.222426354885101
698,-22.75,-16.0757637023926,0.0867524072527885,-19.2208994708995,-15.2532873153687,-0.677505373954773
699,-20.7183098591549,-16.11403465271,0.281858950853348,-21.2570422535211,-15.3153419494629,-0.796908736228943
700,-14.4143835616438,-16.0669898986816,1.25058281421661,-19.222602739726,-15.3521156311035,1.15574991703033
701,-21.5,-16.1107749938965,0.362416356801987,-18.8127853881279,-15.3665103912354,-0.573235273361206
702,-13.9545454545455,-16.0530910491943,0.42751532793045,-10.7727272727273,-15.3755912780762,-0.0969570875167847
703,-11.6184210526316,-16.0300922393799,0.311872780323029,-17.4342105263158,-15.4354772567749,-0.832618236541748
704,-14.1086956521739,-16.0208797454834,0.212902516126633,-8.7445652173913,-15.3839864730835,-0.0512046217918396
705,-17.6363636363636,-16.0267868041992,0.579107820987701,-7.61363636363636,-15.2958850860596,0.272788882255554
706,-14.7294871794872,-16.0373268127441,0.27593457698822,-14.9423076923077,-15.3087797164917,-0.435906946659088
707,-12.6461038961039,-16.0360851287842,0.375644147396088,-19.5681818181818,-15.3260936737061,0.0139565169811249
708,-12.5140449438202,-16.0063304901123,-0.1297527551651,-11.9129213483146,-15.3291501998901,-0.0240408778190613
709,-16.7083333333333,-15.9963006973267,0.111359246075153,-17.5625,-15.3223829269409,-0.0714552253484726
710,-11.5,-15.9487953186035,0.41584113240242,-17.75,-15.3565530776978,0.257215142250061
711,-16.6136363636364,-15.9506750106812,0.480117499828339,-12.8603896103896,-15.3400974273682,-0.565614283084869
712,-17.6764705882353,-15.954870223999,0.298417270183563,-14.95,-15.3422546386719,0.294723749160767
713,-15.0617283950617,-15.9517288208008,0.632993757724762,-19.6965020576132,-15.3871154785156,0.101738572120667
714,-15.75,-15.9484539031982,0.409532636404037,-11.9833333333333,-15.380069732666,-0.401337563991547
715,-14.3625654450262,-15.9390268325806,0.711528539657593,-15.8952879581152,-15.3753290176392,0.753060102462769
716,-14.3,-15.9493598937988,0.367900639772415,-13.25,-15.378662109375,0.267843693494797
717,-16.6018518518519,-15.9583721160889,0.136395111680031,-11.6759259259259,-15.3381690979004,0.179659590125084
718,-11.9651898734177,-15.9294023513794,1.43070030212402,-8.86708860759494,-15.2804708480835,1.22078967094421
719,-20.2852760736196,-16.0120620727539,0.267072916030884,-15.920245398773,-15.279483795166,0.221500977873802
720,-22.1557971014493,-16.036600112915,3.44262671470642,-18.9927536231884,-15.307936668396,0.546367883682251
721,-19.8991228070175,-16.0559272766113,-0.179790407419205,-20.25,-15.3744192123413,0.104347050189972
722,-17.9842767295597,-16.0670776367188,-0.10838671028614,-24,-15.4221258163452,0.229206800460815
723,-16.2603174603175,-16.0779266357422,0.581147789955139,-17.1222222222222,-15.4432563781738,-0.17258495092392
724,-15.7663043478261,-16.0630760192871,0.676294982433319,-14.9402173913043,-15.4078578948975,0.160279482603073
725,-16.5,-16.0539836883545,0.443877369165421,-16.5,-15.4005861282349,0.30718320608139
726,-18.7702312138728,-16.0663146972656,0.410490542650223,-18.3843930635838,-15.4202461242676,-0.245227634906769
727,-18.2037037037037,-16.0841178894043,-0.0178379043936729,-17.4021164021164,-15.4331493377686,-0.0284869074821472
728,-10.117816091954,-16.0195903778076,0.155038073658943,-12.1264367816092,-15.3801918029785,0.103475645184517
729,-18.3283410138249,-16.0324306488037,0.57118684053421,-11.3294930875576,-15.3669404983521,-0.133697748184204
730,-18.95,-16.0370960235596,0.401621609926224,-12.2,-15.3619632720947,0.297472715377808
731,-16.0122950819672,-16.0509738922119,0.536123216152191,-12.3893442622951,-15.3657751083374,0.343793392181396
732,-15.9126637554585,-16.0270595550537,0.21754863858223,-15.674672489083,-15.3490571975708,-0.19867579638958
733,-14.9964114832536,-16.0259590148926,0.833878993988037,-14.5598086124402,-15.3431053161621,-0.425955772399902
734,-12.198275862069,-15.994553565979,1.08566498756409,-15.4425287356322,-15.3692121505737,0.192780300974846
735,-16.5,-16.0065746307373,0.429172515869141,-16.5,-15.3651447296143,0.340789496898651
736,-19.3835403726708,-16.0057983398438,0.435522258281708,-13.944099378882,-15.3485012054443,-0.126839816570282
737,-11.5374015748031,-15.9738101959229,0.445794850587845,-8.26377952755906,-15.3093070983887,0.0807591378688812
738,-16.5,-15.972393989563,0.372430503368378,-16.5,-15.3618698120117,0.320078313350677
739,-15.375,-15.9482278823853,0.394679933786392,-17.0178571428571,-15.3319892883301,0.153710916638374
740,-12.75,-15.8941049575806,0.44036141037941,-11.5,-15.3197526931763,0.331438302993774
741,-20.25,-15.9107713699341,0.294852256774902,-16.6582840236686,-15.2958068847656,0.27201721072197
742,-10.3928571428571,-15.8930206298828,0.810099124908447,-12.3809523809524,-15.285831451416,-0.190982580184937
743,-15.4772727272727,-15.9021615982056,0.619735896587372,-13.8409090909091,-15.2807292938232,0.0494396239519119
744,-15.3372483221477,-15.9252834320068,0.433913350105286,-7.46644295302013,-15.217267036438,-0.0086333155632019
745,-14.8465909090909,-15.9542512893677,0.356379628181458,-21.4147727272727,-15.2701530456543,-0.474780112504959
746,-11.2297297297297,-15.9024496078491,0.36140388250351,-20.9031531531532,-15.2911748886108,0.108222588896751
747,-17.75,-15.9298849105835,0.165638327598572,-10.1396713615023,-15.2622346878052,0.113183438777924
748,-17.0029411764706,-15.9332370758057,0.320715069770813,-18.25,-15.232234954834,-0.0108585804700851
749,-17.2163265306122,-15.9380130767822,0.0897401347756386,-16.4224489795918,-15.2067174911499,0.0232690125703812
750,-17.362426035503,-15.9601402282715,0.165561854839325,-11.4082840236686,-15.1721239089966,0.604443967342377
751,-18.0391705069124,-15.9804000854492,0.432881027460098,-12.9135944700461,-15.1443586349487,-0.0789909958839417
752,-19,-16.022066116333,-0.160425543785095,-10.5,-15.1376924514771,1.28582036495209
753,-12.4772727272727,-15.9452486038208,0.184508949518204,-14.0454545454545,-15.1266422271729,-0.72217869758606
754,-10.25,-15.8680534362793,0.49894106388092,-16.5,-15.1271715164185,0.42855778336525
755,-17.75,-15.9085807800293,0.478648573160172,-16.5,-15.1500654220581,0.328708589076996
756,-13.5471014492754,-15.8980798721313,2.30556392669678,-17.1630434782609,-15.1261520385742,-0.635264873504639
757,-16.5833333333333,-15.9118909835815,0.213711783289909,-17,-15.16037940979,0.1921506524086
758,-10.25,-15.9188089370728,0.436707019805908,-10.25,-15.1290769577026,0.325502961874008
759,-14.5335365853659,-15.8875827789307,1.70978140830994,-20.7865853658537,-15.1530895233154,0.0428173691034317
760,-17.75,-15.9042501449585,0.505207002162933,-10.7619047619048,-15.1315021514893,1.15082967281342
761,-15.25,-15.8959159851074,0.427740275859833,-15.25,-15.106502532959,0.429226338863373
762,-11.7241379310345,-15.8855581283569,0.332161068916321,-12.1752873563218,-15.0851888656616,0.280439168214798
763,-9,-15.8438911437988,0.429382830858231,-20.25,-15.1268558502197,0.360170364379883
764,-16.5,-15.8831644058228,0.543958306312561,-14,-15.0844612121582,0.368977248668671
765,-15.5131578947368,-15.8682498931885,0.382793545722961,-11.9511278195489,-15.0374689102173,0.217144310474396
766,-12.9380952380952,-15.8534460067749,0.878604054450989,-16.8595238095238,-15.0820426940918,0.00176727771759033
767,-15.75,-15.8401126861572,0.253486752510071,-15.65,-15.076376914978,-0.538679242134094
768,-12.75,-15.8066911697388,0.380759954452515,-16.5,-15.0782337188721,0.275589227676392
769,-18.1156387665198,-15.8117609024048,0.793089747428894,-13.488986784141,-15.0639781951904,0.0959948003292084
770,-20.25,-15.8731269836426,0.00298749655485153,-13.7478991596639,-15.0502471923828,-0.670368313789368
771,-15.7085492227979,-15.8878774642944,0.0676729381084442,-13.9015544041451,-15.0138216018677,0.292012393474579
772,-11.7,-15.8515853881836,0.273184418678284,-9.67058823529412,-14.991738319397,0.0709808319807053
773,-20.3559670781893,-15.8939580917358,0.347662597894669,-12.283950617284,-14.9719648361206,0.170551523566246
774,-12.7771428571429,-15.8867273330688,0.304938077926636,-15.1357142857143,-14.965030670166,-0.362661898136139
775,-8.375,-15.8158931732178,0.377742856740952,-17.7159090909091,-14.9814710617065,0.0189776122570038
776,-12.2156862745098,-15.799656867981,0.638859510421753,-13.1960784313725,-14.9342288970947,0.356351494789124
777,-16.5,-15.8685445785522,0.415092796087265,-16.5,-14.9776496887207,0.466469556093216
778,-9.10645161290322,-15.8047151565552,0.827249944210052,-12.8790322580645,-14.9691781997681,0.358048856258392
779,-17.1915887850467,-15.8294124603271,0.378942757844925,-9.87616822429906,-14.9437580108643,0.332096755504608
780,-12.6011235955056,-15.815167427063,0.37567326426506,-9.80056179775281,-14.8879365921021,0.304281115531921
781,-15.25,-15.7859859466553,0.449177205562592,-12.75,-14.8617973327637,0.340457856655121
782,-18.4589136490251,-15.8001756668091,0.178942903876305,-13.958217270195,-14.8242597579956,0.00120705366134644
783,-16.0126728110599,-15.8135938644409,0.253502190113068,-15.75,-14.8192596435547,0.17515429854393
784,-11.5,-15.7649412155151,0.391765058040619,-14,-14.8163509368896,0.442737519741058
785,-11.6918604651163,-15.7464027404785,0.804988861083984,-11.656976744186,-14.7841033935547,-0.718247294425964
786,-13.2151898734177,-15.7428693771362,1.53093147277832,-19.7151898734177,-14.8076887130737,1.32785940170288
787,-8.02083333333333,-15.7106952667236,0.307656049728394,-18.8958333333333,-14.8073663711548,-0.923561573028564
788,-11.5,-15.6832256317139,0.414663165807724,-12.75,-14.7706995010376,0.334523499011993
789,-14.5,-15.6695394515991,0.274402171373367,-14.7582159624413,-14.7458562850952,0.00619284808635712
790,-11.4112627986348,-15.6056900024414,2.46130418777466,-16.3191126279863,-14.7029838562012,1.64956068992615
791,-19.9285714285714,-15.6375408172607,2.49909472465515,-12.2142857142857,-14.6820850372314,0.155693307518959
792,-14.875,-15.6052474975586,0.359411388635635,-15.8214285714286,-14.6753120422363,-0.213249355554581
793,-20.1496815286624,-15.6721382141113,0.371971905231476,-16.6385350318471,-14.7124328613281,-0.96556693315506
794,-18.1885964912281,-15.7083950042725,0.484275281429291,-11.3991228070175,-14.678427696228,0.242016106843948
795,-15.25,-15.6875419616699,0.369561374187469,-17.75,-14.7462968826294,0.185960665345192
796,-12.9780701754386,-15.6557312011719,0.355122357606888,-14.8771929824561,-14.7354784011841,-0.404177248477936
797,-12.0131578947368,-15.6121635437012,2.44538617134094,-15.1052631578947,-14.7235479354858,1.52457594871521
798,-9.76635514018692,-15.5422229766846,0.500410914421082,-14.8271028037383,-14.7192411422729,0.352929532527924
799,-22.0594795539033,-15.5990839004517,0.43681675195694,-14.1013011152416,-14.7092771530151,0.301974982023239
800,-14.8790322580645,-15.5888833999634,0.320663541555405,-12.8677419354839,-14.6653356552124,-0.349516004323959
801,-19.8478260869565,-15.5913772583008,0.5261150598526,-11.1376811594203,-14.6053400039673,-0.663518726825714
802,-8.53994082840237,-15.5642986297607,0.528494715690613,-5.80769230769231,-14.5061655044556,0.229017943143845
803,-12.6132075471698,-15.5251398086548,0.387422144412994,-15.9874213836478,-14.5304374694824,0.295570582151413
804,-14.126582278481,-15.520359992981,0.458073258399963,-9.70253164556962,-14.4897050857544,0.0783291459083557
805,-17.8481012658228,-15.5218133926392,0.177843376994133,-16.8512658227848,-14.4673147201538,-0.276418596506119
806,-16.5,-15.5548715591431,0.360173225402832,-10.25,-14.4595537185669,0.325354427099228
807,-21.1780415430267,-15.5943908691406,0.0257394090294838,-14.4569732937685,-14.4542675018311,0.11127981543541
808,-17.7087301587302,-15.6114921569824,2.26908278465271,-16.5484126984127,-14.4770374298096,0.449234694242477
809,-16.4954337899543,-15.5781278610229,0.221932470798492,-15.1632420091324,-14.4676208496094,-0.143135666847229
810,-19.7215909090909,-15.6300582885742,0.323960244655609,-12.0965909090909,-14.4346837997437,0.0919528752565384
811,-8.22727272727273,-15.5632410049438,0.454510897397995,-12.0227272727273,-14.3978853225708,0.047171339392662
812,-10.759900990099,-15.5316390991211,0.41071343421936,-21.7351485148515,-14.473575592041,0.0750506818294525
813,-15.5,-15.5439567565918,0.502386569976807,-11.3563829787234,-14.4109506607056,0.187828928232193
814,-15.0968208092486,-15.5493583679199,0.637737631797791,-17.9219653179191,-14.4244012832642,-0.693782687187195
815,-12.7261904761905,-15.5375337600708,0.270451188087463,-14.1612554112554,-14.4325046539307,0.0419797003269196
816,-11.3552631578947,-15.4699106216431,0.298533827066422,-13.5,-14.4424962997437,0.0135247707366943
817,-10.3603896103896,-15.4039812088013,0.939026772975922,-13.5584415584416,-14.4227876663208,0.1032704859972
818,-19.1519337016575,-15.404993057251,0.483109772205353,-15.5234806629834,-14.4329442977905,-0.0485717207193375
819,-12.3858695652174,-15.3775653839111,0.382701933383942,-15.8913043478261,-14.4205532073975,-0.207370355725288
820,-12.0784023668639,-15.3770198822021,0.451611578464508,-13.8816568047337,-14.3898439407349,0.252328336238861
821,-16.4794117647059,-15.3674383163452,0.252431601285934,-11.6176470588235,-14.4017696380615,0.207347184419632
822,-14.0106382978723,-15.3521976470947,0.093095600605011,-13.3297872340426,-14.4212303161621,0.410221338272095
823,-17.0489795918367,-15.3475246429443,0.239520519971848,-13.2071428571429,-14.424277305603,0.329563766717911
824,-16.1086956521739,-15.3038911819458,0.317270517349243,-17.0326086956522,-14.4587593078613,-0.177756756544113
825,-14,-15.2872247695923,0.440567016601562,-14,-14.4670934677124,0.341178506612778
826,-13.6774193548387,-15.2781476974487,0.368269205093384,-10.2956989247312,-14.4333820343018,0.284826129674911
827,-12.4073033707865,-15.2258625030518,0.579224824905396,-13.1825842696629,-14.4212665557861,-0.0860175341367722
828,-11.6136363636364,-15.2182874679565,1.13416576385498,-22.75,-14.4879331588745,-0.160172939300537
829,-19,-15.2694339752197,0.328524231910706,-16.5,-14.5060110092163,0.413122147321701
830,-13.1980198019802,-15.2807550430298,0.274660915136337,-6.03712871287129,-14.4445915222168,-0.58787602186203
831,-14,-15.2580032348633,0.418829411268234,-12.75,-14.4047918319702,0.327183902263641
832,-14.4144736842105,-15.2190980911255,0.431089758872986,-10.75,-14.4081249237061,0.244504019618034
833,-15.6203703703704,-15.1715688705444,0.384672224521637,-10.6574074074074,-14.4108419418335,0.105330556631088
834,-12.7622699386503,-15.1695833206177,0.547677040100098,-15.0398773006135,-14.4470129013062,0.343226134777069
835,-11.244094488189,-15.1578779220581,0.548085033893585,-17.5314960629921,-14.4707441329956,0.351928770542145
836,-17.7593516209476,-15.1932287216187,-0.0421050190925598,-16.3977556109726,-14.4839601516724,0.303233504295349
837,-16.5,-15.2241764068604,0.442104369401932,-11.5,-14.49294090271,0.375022947788239
838,-15.0946601941748,-15.2274465560913,0.175873279571533,-20.0728155339806,-14.5331020355225,0.140376314520836
839,-12.0966666666667,-15.2144804000854,0.416676640510559,-18.5366666666667,-14.5575456619263,0.35308450460434
840,-12.6882352941176,-15.172402381897,0.439037531614304,-13.5558823529412,-14.5823049545288,-0.838899612426758
841,-16.5,-15.1557359695435,0.362103879451752,-18.288961038961,-14.6359176635742,-0.245998188853264
842,-20.75,-15.1507358551025,0.344999372959137,-18.1315789473684,-14.6351270675659,0.0985281616449356
843,-14.2371794871795,-15.1362810134888,0.414912849664688,-14.6166666666667,-14.6154756546021,-0.291324645280838
844,-18.5975609756098,-15.1585969924927,0.208505630493164,-10.6731707317073,-14.5941047668457,0.308162987232208
845,-17.5013368983957,-15.1827831268311,-0.281793653964996,-19.2540106951872,-14.6621904373169,0.167219892144203
846,-15.5406698564593,-15.1983757019043,1.85636878013611,-14.9258373205742,-14.6819496154785,0.122819617390633
847,-17.4179894179894,-15.1801624298096,-0.554857790470123,-21.5,-14.7129020690918,-0.181841522455215
848,-20.25,-15.1634960174561,0.673828065395355,-18.7682926829268,-14.7098846435547,-0.696449816226959
849,-7.48913043478261,-15.0753030776978,0.46917924284935,-11.5,-14.6448373794556,-0.0800825655460358
850,-13.0462962962963,-15.0661811828613,0.21988870203495,-14.3611111111111,-14.6124267578125,-0.0172256678342819
851,-13.9707792207792,-15.0159864425659,0.0781570300459862,-13,-14.5736751556396,-0.00359205901622772
852,-11.5029239766082,-14.9996433258057,0.297632694244385,-9.81140350877193,-14.5672655105591,0.154246225953102
853,-16.3508771929825,-15.031192779541,0.689972519874573,-13.8143274853801,-14.5431327819824,0.0888049602508545
854,-16.4764150943396,-15.0469779968262,0.359328508377075,-7.60062893081761,-14.5355081558228,-0.293516039848328
855,-12,-15.0094013214111,0.290676295757294,-16.3033707865169,-14.5934391021729,0.0106187462806702
856,-13.1968599033816,-14.9991827011108,0.262889236211777,-13.5,-14.5838232040405,0.126193359494209
857,-12.8755813953488,-15.0007133483887,0.200002700090408,-17.75,-14.571702003479,0.141812548041344
858,-17.75,-15.0356197357178,0.408857583999634,-11.5,-14.5689506530762,0.40686959028244
859,-12.01,-15.004298210144,0.409199446439743,-10.505,-14.5218992233276,0.324213147163391
860,-9.69488188976378,-14.9922637939453,0.409934610128403,-13.6673228346457,-14.4946813583374,0.135846495628357
861,-10.4010067114094,-14.9508466720581,0.491988211870193,-21.5,-14.5522785186768,-0.715879082679749
862,-14.3403614457831,-14.9286050796509,0.398599356412888,-16.4186746987952,-14.562068939209,-0.225369960069656
863,-13.8975409836066,-14.9208431243896,0.454266369342804,-16.2786885245902,-14.5392837524414,0.0701223611831665
864,-4.86818181818182,-14.8482971191406,0.704618036746979,-16.4090909090909,-14.5687894821167,0.581837356090546
865,-15.7972972972973,-14.8578634262085,0.47240275144577,-13.4864864864865,-14.5527315139771,0.293267726898193
866,-14,-14.8558626174927,0.455323696136475,-19,-14.591064453125,0.27932870388031
867,-8.42955801104972,-14.8013820648193,1.0107114315033,-19.4295580110497,-14.6427574157715,0.00621184706687927
868,-14.6712328767123,-14.8194217681885,1.54067242145538,-8.53767123287671,-14.6405601501465,1.49753737449646
869,-16.0464135021097,-14.7911624908447,2.48994660377502,-13.5369198312236,-14.6246700286865,1.99861431121826
870,-15.0845070422535,-14.7440204620361,0.577556788921356,-18.406103286385,-14.6207580566406,0.411726415157318
871,-15.1848441926346,-14.7125911712646,1.02102041244507,-12.4943342776204,-14.5690546035767,0.0981372147798538
872,-15.6891304347826,-14.6972904205322,0.458199769258499,-12.1130434782609,-14.4898080825806,0.0623449683189392
873,-9.50243902439025,-14.6522378921509,0.426647543907166,-16.159756097561,-14.4833917617798,0.170235633850098
874,-17.5652173913043,-14.664231300354,0.306802809238434,-8.81211180124224,-14.4425373077393,0.0943029373884201
875,-14.2087378640777,-14.6489553451538,0.211413487792015,-16.5145631067961,-14.4426355361938,-0.203870058059692
876,-14.3601108033241,-14.6195554733276,0.746615529060364,-13.106648199446,-14.40744972229,-0.368529260158539
877,-19,-14.6248636245728,0.477470070123672,-13.3090909090909,-14.380163192749,-0.715240240097046
878,-14.2052401746725,-14.6521129608154,0.336111068725586,-13.207423580786,-14.3873682022095,-0.321505010128021
879,-16.5,-14.6399250030518,0.419505387544632,-14.032722513089,-14.4053907394409,0.710633277893066
880,-11.5,-14.590256690979,0.472564458847046,-11.5,-14.4007225036621,0.305161029100418
881,-19.1582840236686,-14.6112308502197,0.404737621545792,-14.689349112426,-14.4160566329956,-0.00548957288265228
882,-15.25,-14.6068134307861,0.360142737627029,-17.75,-14.429892539978,0.461667835712433
883,-8.84730538922156,-14.5658206939697,0.60221928358078,-13.1841317365269,-14.4207210540771,0.341624677181244
884,-9.24031007751938,-14.5461006164551,0.397478342056274,-14.0949612403101,-14.4117383956909,0.287030279636383
885,-11.5,-14.5127668380737,0.431453347206116,-14,-14.3950719833374,0.354051887989044
886,-12.75,-14.4685430526733,0.433746069669724,-15.25,-14.4037780761719,0.396755337715149
887,-21.5,-14.5349588394165,0.34836819767952,-14.3614457831325,-14.4444284439087,0.359216928482056
888,-12.21875,-14.5064172744751,0.478572636842728,-14.15625,-14.4288034439087,0.373508751392365
889,-12.2241379310345,-14.4854116439819,0.435520857572556,-14.7212643678161,-14.4134931564331,0.219194084405899
890,-14,-14.4937448501587,0.487157493829727,-12.75,-14.4218263626099,0.402523398399353
891,-17,-14.4720783233643,0.250026404857635,-21.5767195767196,-14.4546155929565,-0.63671875
892,-18.6012195121951,-14.5268020629883,-0.0829639509320259,-14.0463414634146,-14.4657173156738,0.459844499826431
893,-18.475,-14.5467853546143,0.196440875530243,-10.3,-14.4421129226685,0.429422974586487
894,-11.6925287356322,-14.5224866867065,0.156726181507111,-5.97988505747126,-14.4322023391724,0.386439859867096
895,-10.75,-14.4951753616333,-0.0507295876741409,-17.75,-14.4077701568604,0.776189565658569
896,-10.9082840236686,-14.4930334091187,0.568638801574707,-15.1316568047337,-14.3692932128906,0.143514588475227
897,-15.25,-14.4763669967651,0.622545182704926,-17.75,-14.4200296401978,0.441827833652496
898,-14.2589928057554,-14.4580745697021,0.403407782316208,-13.0845323741007,-14.3855924606323,0.533115029335022
899,-14.6340782122905,-14.4408597946167,0.347586154937744,-14.2192737430168,-14.3709049224854,0.325550734996796
900,-8.26931330472103,-14.3802394866943,0.166999131441116,-3.7950643776824,-14.3201494216919,0.0884044319391251
901,-9,-14.3199768066406,0.384117662906647,-15.25,-14.3357257843018,0.374392628669739
902,-15.25,-14.2949771881104,0.43726909160614,-10.25,-14.334059715271,0.407075107097626
903,-17.75,-14.3301286697388,-0.024061918258667,-16.4363636363636,-14.3500003814697,-0.459683120250702
904,-10.6434426229508,-14.3327522277832,0.809606850147247,-14.3893442622951,-14.3359279632568,0.134958818554878
905,-14.4210526315789,-14.3105602264404,1.4338800907135,-9.21052631578947,-14.28733253479,2.60955047607422
906,-14.9487951807229,-14.3199043273926,0.573367536067963,-15.4698795180723,-14.2760448455811,0.319953382015228
907,-9.43455497382199,-14.2722463607788,0.448198020458221,-12.0157068062827,-14.2428159713745,1.22879195213318
908,-17.368544600939,-14.3197040557861,0.679552793502808,-19.7112676056338,-14.305890083313,0.0434871912002563
909,-9.75,-14.2878122329712,0.328449487686157,-12.8896648044693,-14.2532434463501,-0.0563080757856369
910,-19.8406113537118,-14.3017511367798,0.292210400104523,-17.7139737991266,-14.2995910644531,0.138203904032707
911,-6.71086956521739,-14.2448225021362,0.395168393850327,-16.6108695652174,-14.3086633682251,-0.402703046798706
912,-11.5,-14.2433280944824,0.652041614055634,-16.5,-14.3374948501587,0.178401425480843
913,-16.5,-14.2933282852173,0.30658632516861,-17.875,-14.3216619491577,0.26295006275177
914,-9.46264367816092,-14.246413230896,0.546890497207642,-21.117816091954,-14.3691129684448,0.122371926903725
915,-12.5993150684932,-14.2269868850708,0.920304477214813,-19,-14.4161071777344,1.05790662765503
916,-13.6158536585366,-14.2315053939819,-0.0200238600373268,-7.00609756097561,-14.350417137146,-0.421794801950455
917,-15.25,-14.2281723022461,0.390872240066528,-11.5,-14.3227510452271,0.396988391876221
918,-9.49117647058824,-14.2064456939697,0.325389832258224,-12.2470588235294,-14.294397354126,0.14027014374733
919,-13.1978527607362,-14.1736621856689,0.554228603839874,-12.2638036809816,-14.2862300872803,-0.561733305454254
920,-14.9,-14.1379947662354,1.12495124340057,-8.29444444444444,-14.2498731613159,-0.114705100655556
921,-15.8683431952663,-14.1390590667725,0.852838099002838,-12.75,-14.2421960830688,0.374407291412354
922,-16.5,-14.1710596084595,0.221789300441742,-11.815668202765,-14.256495475769,-0.234571695327759
923,-16.5,-14.1453533172607,0.419145852327347,-12.75,-14.2596025466919,0.481505751609802
924,-16.8440594059406,-14.1724662780762,-0.0816268175840378,-13.0470297029703,-14.2456789016724,-0.0296679437160492
925,-17.75,-14.2349662780762,0.437158763408661,-11.5,-14.2042398452759,0.404622495174408
926,-17.7819383259912,-14.2720737457275,0.126792311668396,-9.12444933920705,-14.1770944595337,0.285166263580322
927,-16.2224409448819,-14.270224571228,0.452179759740829,-17,-14.1804285049438,0.290786623954773
928,-13.0298353909465,-14.2963800430298,0.269308477640152,-15.1707818930041,-14.1957063674927,0.205682307481766
929,-19.0512195121951,-14.3087778091431,0.0286764800548553,-13.0292682926829,-14.2167272567749,-0.0929814577102661
930,-17.6201298701299,-14.3422384262085,0.18170328438282,-6.41883116883117,-14.1941833496094,-0.0237799137830734
931,-9.18023255813953,-14.3017721176147,0.76563823223114,-19.1220930232558,-14.2366638183594,-0.104933813214302
932,-11.9185082872928,-14.2581701278687,0.193014025688171,-13.5234806629834,-14.2337646484375,-0.643312454223633
933,-16.5,-14.2614192962646,0.410418897867203,-19,-14.2554311752319,0.284745812416077
934,-15.6582278481013,-14.2891407012939,0.848856568336487,-15.4050632911392,-14.2647981643677,1.36978197097778
935,-11.2982456140351,-14.2865171432495,0.280212908983231,-9.21052631578947,-14.2484893798828,0.289517462253571
936,-17.4658273381295,-14.3148536682129,-0.136773958802223,-12.6780575539568,-14.2015752792358,0.264425843954086
937,-13.1776315789474,-14.3492336273193,0.377769231796265,-15.3092105263158,-14.1776647567749,0.38390052318573
938,-14.6150793650794,-14.3699998855591,0.686473250389099,-14.0896825396825,-14.1865949630737,0.512972056865692
939,-12.1397849462366,-14.3542642593384,0.353211045265198,-10.4086021505376,-14.1575975418091,0.176021233201027
940,-17,-14.3915233612061,0.412729382514954,-15.1316568047337,-14.1496810913086,0.447926729917526
941,-9.85622317596567,-14.3243751525879,0.443177223205566,-14.9077253218884,-14.1676387786865,0.155497863888741
942,-17.0069124423963,-14.338586807251,0.412683486938477,-8.01958525345622,-14.115626335144,0.187701240181923
943,-19.1229281767956,-14.3317413330078,0.12733381986618,-14.9309392265193,-14.1042413711548,-0.358242809772491
944,-19,-14.3371515274048,0.430341988801956,-11.5,-14.1049156188965,0.443758904933929
945,-12.5152582159624,-14.3189191818237,0.325896680355072,-7.56807511737089,-14.0370359420776,0.240319982171059
946,-19,-14.3590660095215,0.518500864505768,-10.5233160621762,-14.0080099105835,0.189500063657761
947,-21.5,-14.4223108291626,0.386117547750473,-15.7327044025157,-14.0121927261353,0.369475036859512
948,-13.9148199445983,-14.4499673843384,0.423554658889771,-8.13573407202216,-13.9675827026367,0.044651597738266
949,-19,-14.4295701980591,0.508998453617096,-16.5,-13.9835739135742,0.396005868911743
950,-13.3636363636364,-14.4194679260254,0.363986670970917,-15.1931818181818,-13.9990768432617,0.0495454519987106
951,-8.25739644970414,-14.3421993255615,1.15754723548889,-10.75,-13.9964923858643,0.257208079099655
952,-15.4867149758454,-14.3885107040405,0.0320985838770866,-6.64009661835749,-14.0020408630371,-0.739806294441223
953,-15.25,-14.4060888290405,0.496666252613068,-16.5,-14.0054588317871,0.44378250837326
954,-13.5098039215686,-14.4019756317139,0.565890371799469,-19.5441176470588,-14.0710697174072,0.422086745500565
955,-12.7010869565217,-14.3676624298096,0.216915994882584,-18.25,-14.0803937911987,0.250162661075592
956,-10.1489361702128,-14.3253221511841,0.389881789684296,-11.9787234042553,-14.0919189453125,-0.36720085144043
957,-15.7284122562674,-14.2889928817749,0.339659720659256,-17.3328690807799,-14.1110925674438,-0.895132780075073
958,-17,-14.2842674255371,0.29951736330986,-13.9344660194175,-14.0936651229858,0.0963762104511261
959,-14.0529411764706,-14.2679853439331,0.326683044433594,-16.5352941176471,-14.1028127670288,0.00146007537841797
960,-14.6785714285714,-14.2343654632568,0.440655708312988,-12.2275510204082,-14.1036863327026,-0.353976845741272
961,-15.25,-14.2811832427979,0.396446287631989,-6.5,-14.0668687820435,0.444638669490814
962,-11.7094594594595,-14.2875127792358,0.322213232517242,-24,-14.0819664001465,-0.570990204811096
963,-9.5337552742616,-14.2477378845215,2.9479353427887,-13.7637130801688,-14.0980157852173,1.97698163986206
964,-19.5673515981735,-14.2775421142578,0.0677217692136765,-14.3367579908676,-14.0741147994995,0.221809610724449
965,-15.25,-14.2943687438965,0.432998567819595,-15.25,-14.081374168396,0.379546195268631
966,-13.4117647058824,-14.3080759048462,0.346052616834641,-13.2823529411765,-14.0799217224121,0.0240481197834015
967,-5.55177514792899,-14.2760190963745,0.19075670838356,-8.02662721893491,-14.0430421829224,0.183095693588257
968,-11.5401069518717,-14.2252731323242,0.439794719219208,-12.6069518716578,-14.0235986709595,0.272505283355713
969,-13.4664634146341,-14.2324771881104,0.785116493701935,-15.7957317073171,-14.0229625701904,0.103831082582474
970,-10.3641025641026,-14.2210502624512,0.358198702335358,-15.8974358974359,-14.0363998413086,-0.258659601211548
971,-14.6845794392523,-14.2090835571289,0.396222114562988,-15.9392523364486,-14.0652112960815,0.115199059247971
972,-17.8313609467456,-14.2345552444458,0.394480884075165,-13.0872781065089,-14.0635938644409,0.335859179496765
973,-12.8257142857143,-14.2063999176025,0.589025914669037,-8.73857142857143,-14.0338039398193,0.0224803984165192
974,-9.07093023255814,-14.159481048584,0.30144938826561,-11.1279069767442,-13.9944381713867,-0.201368480920792
975,-7.75,-14.1178140640259,0.427125930786133,-14,-13.9944381713867,0.308303683996201
976,-9.01162790697675,-14.086709022522,0.430887788534164,-16.7713178294574,-14.0376091003418,-0.60747504234314
977,-11.8901098901099,-14.0832614898682,1.63943791389465,-13.8901098901099,-14.0423259735107,1.62270998954773
978,-20.4768518518519,-14.1423482894897,0.424590915441513,-12.4907407407407,-13.9739303588867,-0.00403401255607605
979,-12.8670886075949,-14.1014633178711,0.352974414825439,-10.623417721519,-13.9347543716431,0.0454494953155518
980,-16.6123595505618,-14.1242256164551,0.120724439620972,-14.1432584269663,-13.9887952804565,0.125421702861786
981,-11.71875,-14.1090173721313,1.13157975673676,-12.96875,-13.9902534484863,0.223101526498795
982,-15.9736842105263,-14.1194124221802,0.284317851066589,-14.1710526315789,-14.0130596160889,0.0398123264312744
983,-8.93181818181818,-14.0748224258423,0.183372408151627,-12.875,-14.0278453826904,0.352983325719833
984,-11.7229437229437,-14.0678939819336,0.278673678636551,-10.3409090909091,-13.9965171813965,0.0551344752311707
985,-13.952380952381,-14.0859470367432,0.0886732488870621,-10.702380952381,-13.9509897232056,0.107799366116524
986,-13.8827751196172,-14.0601043701172,0.351641893386841,-15.5143540669856,-13.9451007843018,0.13999031484127
987,-11.9595375722543,-14.0298357009888,0.231358841061592,-8.34248554913295,-13.92405128479,-1.02181470394135
988,-18.8260869565217,-14.0547122955322,0.343060702085495,-9.75,-13.8552331924438,-0.103549271821976
989,-15.25,-14.0757341384888,0.386529266834259,-17.75,-13.8499889373779,0.222328290343285
990,-9.68342776203966,-14.0557012557983,0.348624020814896,-12.6600566572238,-13.8440170288086,0.246945947408676
991,-11.5363636363636,-14.0226106643677,0.184131503105164,-18.1636363636364,-13.8431806564331,0.0424488484859467
992,-18.4633757961783,-14.0073661804199,0.947483360767365,-13.7213375796178,-13.8137788772583,-0.62058961391449
993,-17.5189873417722,-14.0292444229126,0.261326551437378,-10.9715189873418,-13.7894773483276,0.0253441333770752
994,-8.88023952095808,-13.9644632339478,-0.11407932639122,-8.13023952095808,-13.7725248336792,0.228934735059738
995,-7.6359649122807,-13.8986949920654,0.397473573684692,-14.1491228070175,-13.7384929656982,0.205846190452576
996,-13.6290322580645,-13.885950088501,0.478495746850967,-16.1193548387097,-13.7464485168457,1.18315148353577
997,-17.707249070632,-13.8878774642944,0.516635417938232,-17.2081784386617,-13.7178382873535,0.450506508350372
998,-11.8657718120805,-13.8319845199585,0.407349526882172,-15.6442953020134,-13.6970119476318,0.270645558834076
999,-12.4642857142857,-13.8651514053345,-0.140336841344833,-18.3738095238095,-13.7428350448608,0.205270200967789
1000,-11.037037037037,-13.8517560958862,0.404650270938873,-16.712962962963,-13.7585153579712,0.212287157773972
1001,-14.25,-13.8536186218262,0.497394561767578,-13.0159574468085,-13.7586212158203,0.101218551397324
1002,-17.5428571428571,-13.8938837051392,2.66369223594666,-13.1285714285714,-13.7807359695435,-0.0790598690509796
1003,-10.5470297029703,-13.8551921844482,0.373852252960205,-16.0990099009901,-13.7959671020508,-0.0908719897270203
1004,-18.25,-13.8670148849487,0.410898208618164,-11.4707792207792,-13.8217678070068,0.0881729423999786
1005,-10.25,-13.8553485870361,0.415243148803711,-9,-13.7730798721313,0.434876531362534
1006,-10.688202247191,-13.838623046875,0.460299372673035,-13.6629213483146,-13.7741651535034,0.297342866659164
1007,-16.5,-13.8627862930298,0.417875498533249,-12.75,-13.7408313751221,0.400883048772812
1008,-5.5187969924812,-13.7812452316284,0.373051762580872,-11.6616541353383,-13.7419090270996,0.204647302627563
1009,-15.5416666666667,-13.8047904968262,0.318660080432892,-12.25,-13.7535429000854,-0.401199996471405
1010,-15.25,-13.8418226242065,0.400593042373657,-12.75,-13.7474279403687,0.447462856769562
1011,-12.4574468085106,-13.8555335998535,0.358012437820435,-9.68085106382979,-13.6686325073242,0.40915459394455
1012,-15.2592592592593,-13.8616580963135,-0.00580403208732605,-8.43253968253968,-13.6153926849365,-0.355998039245605
1013,-8.91304347826087,-13.8284292221069,1.73283636569977,-16.3478260869565,-13.6158533096313,-0.235252067446709
1014,-16.8637566137566,-13.9084005355835,0.274003088474274,-16.0396825396825,-13.6133899688721,0.0177284479141235
1015,-14.8766666666667,-13.9022626876831,0.486949473619461,-11.85,-13.6024808883667,0.393254816532135
1016,-13.4117647058824,-13.898341178894,0.411888033151627,-15.2373949579832,-13.5773963928223,-0.112630158662796
1017,-16.4795597484277,-13.9520082473755,0.484272122383118,-10.2295597484277,-13.5160617828369,-0.196950346231461
1018,-10.6812865497076,-13.9254083633423,0.37109112739563,-17.8347953216374,-13.5780429840088,0.117783471941948
1019,-14.1136363636364,-13.912522315979,0.328167319297791,-13.1590909090909,-13.5755243301392,0.0626658797264099
1020,-14.6259351620948,-13.9094657897949,0.69780021905899,-11.5249376558603,-13.5296497344971,0.185729384422302
1021,-14.2631578947368,-13.9033222198486,0.335387855768204,-10.3377192982456,-13.5152730941772,0.464854836463928
1022,-16.5,-13.908727645874,0.402976393699646,-15.25,-13.5361862182617,0.357342451810837
1023,-18.4060975609756,-13.9680843353271,0.38138484954834,-12.6439024390244,-13.5127477645874,0.458445698022842
1024,-20.8764367816092,-13.990159034729,0.00974377244710922,-12.9913793103448,-13.5406084060669,0.368010342121124
1025,-15.0683229813665,-13.9958906173706,0.296981960535049,-14.0667701863354,-13.5242900848389,0.331335693597794
1026,-8.93181818181818,-13.9597005844116,-0.0608019568026066,-19.5,-13.566912651062,-0.0138562917709351
1027,-14.1383495145631,-13.9272918701172,0.346890926361084,-11.5558252427184,-13.5552244186401,0.254753351211548
1028,-12.75,-13.9175891876221,0.39343136548996,-15.25,-13.5688409805298,0.464548468589783
1029,-15.5,-13.9109230041504,0.293196797370911,-16.2,-13.5832891464233,-0.601767718791962
1030,-17.6677419354839,-13.9520406723022,-0.118034511804581,-11.0661290322581,-13.580397605896,-0.353968679904938
1031,-14,-13.9176530838013,0.388756632804871,-14,-13.5758018493652,0.438823640346527
1032,-11.5,-13.892653465271,0.440513163805008,-11.5,-13.5341348648071,0.541938304901123
1033,-9.58308605341246,-13.897557258606,0.200209707021713,-18.0163204747774,-13.566349029541,-0.332078456878662
1034,-14.5681818181818,-13.9330759048462,0.00905278138816357,-11.7272727272727,-13.5505647659302,-0.293090611696243
1035,-19.3885542168675,-13.9856653213501,0.129673480987549,-9.73795180722892,-13.5221519470215,0.24935844540596
1036,-15.0691126279863,-14.0011262893677,1.56506586074829,-9.54351535836178,-13.4841089248657,1.3406172990799
1037,-14.8484251968504,-13.9567842483521,0.250834882259369,-7.46653543307087,-13.4381418228149,0.387693464756012
1038,-16.7857142857143,-13.987229347229,0.313918888568878,-8.73214285714286,-13.4019813537598,0.253404498100281
1039,-11.5,-13.9824028015137,0.432658344507217,-14,-13.3971729278564,0.502942204475403
1040,-9,-13.9490690231323,0.447992861270905,-14,-13.4055061340332,0.458059370517731
1041,-15.5862068965517,-13.9396438598633,0.226643025875092,-17.933908045977,-13.3812208175659,0.451005756855011
1042,-15.25,-13.9173011779785,0.445068418979645,-11.5,-13.3642454147339,0.452078819274902
1043,-15.9024390243902,-13.9001512527466,0.0811520293354988,-11.3865853658537,-13.3714904785156,0.00110840797424316
1044,-10.25,-13.8905334472656,0.473016917705536,-14,-13.4249572753906,0.389275193214417
1045,-12.7009345794393,-13.9035396575928,0.246543347835541,-13.1728971962617,-13.3944435119629,0.262321650981903
1046,-11.2236842105263,-13.9056425094604,-0.328772783279419,-9.13157894736842,-13.3544416427612,0.0177038013935089
1047,-19.0140449438202,-13.9307374954224,0.200886011123657,-16.564606741573,-13.3465394973755,-0.226226598024368
1048,-11.0652173913043,-13.90944480896,0.255673170089722,-10.8478260869565,-13.3316278457642,-0.550106167793274
1049,-18.2575757575758,-13.9336023330688,0.0693380981683731,-16.1850649350649,-13.3447332382202,-0.478756010532379
1050,-15.5217391304348,-13.981951713562,0.371942818164825,-9.61413043478261,-13.383526802063,0.167001932859421
1051,-10.25,-13.9902849197388,0.359643757343292,-12.75,-13.3668603897095,0.415737092494965
1052,-10.376582278481,-13.9577960968018,0.463454067707062,-4.87341772151899,-13.3310174942017,0.207640260457993
1053,-12.8029953917051,-13.9248161315918,0.158867120742798,-15.0195852534562,-13.321572303772,-0.0490415394306183
1054,-7.92016806722689,-13.9066600799561,0.387275576591492,-14.7289915966387,-13.3238363265991,-0.584772884845734
1055,-14.5,-13.907187461853,0.362841367721558,-15.8483870967742,-13.368088722229,-0.279997259378433
1056,-10.0241935483871,-13.8743553161621,0.415772914886475,-15.5806451612903,-13.3688268661499,0.0610296279191971
1057,-12.4441747572816,-13.8944206237793,0.309627443552017,-12.2087378640777,-13.3701143264771,0.176542907953262
1058,-9,-13.8386297225952,0.495796829462051,-9,-13.2987051010132,0.565224230289459
1059,-9,-13.8336296081543,0.445286065340042,-15.25,-13.3144407272339,0.49083223938942
1060,-15.25,-13.8030252456665,0.491913288831711,-12.75,-13.2813472747803,0.447823643684387
1061,-13.3095238095238,-13.8470163345337,0.253753632307053,-12.8365800865801,-13.2561855316162,0.106466367840767
1062,-14,-13.8636837005615,0.446145325899124,-16.5,-13.2561855316162,0.468179196119308
1063,-9,-13.813684463501,0.412393867969513,-20.25,-13.2720193862915,0.431869328022003
1064,-12.6931818181818,-13.8352212905884,0.138052582740784,-20.25,-13.2662334442139,0.015461266040802
1065,-15.0971428571429,-13.8518733978271,0.00198375433683395,-15,-13.2395668029785,-0.256241172552109
1066,-14.2294117647059,-13.8559637069702,0.105943784117699,-10.0264705882353,-13.2597026824951,0.226731762290001
1067,-16.3420245398773,-13.8632440567017,0.00600565969944,-13.3374233128834,-13.2719526290894,0.0439168810844421
1068,-7.1509900990099,-13.8476428985596,0.174080520868301,-5.2970297029703,-13.2256183624268,-0.0920216292142868
1069,-9,-13.8196563720703,0.192148491740227,-12.1515151515152,-13.2248697280884,0.417241871356964
1070,-13.5488721804511,-13.8106498718262,0.380879521369934,-15.75,-13.2745733261108,0.308796763420105
1071,-12.6909871244635,-13.7894678115845,0.143100142478943,-8.15557939914163,-13.2439441680908,0.0629300773143768
1072,-10.9430051813472,-13.7524223327637,0.428255796432495,-8.8639896373057,-13.2242670059204,-0.148136377334595
1073,-12.5545977011494,-13.7261180877686,0.71642142534256,-11.5086206896552,-13.2159900665283,0.41471540927887
1074,-10.7579365079365,-13.6855440139771,0.507635414600372,-15.2208994708995,-13.2304830551147,-0.19114962220192
1075,-11.5728155339806,-13.644362449646,0.4432333111763,-6.9368932038835,-13.2000617980957,0.346917688846588
1076,-6.28723404255319,-13.5677309036255,0.327408075332642,-13.5957446808511,-13.2298717498779,0.108737647533417
1077,-14.1617647058824,-13.5539922714233,0.391790330410004,-15.25,-13.218204498291,-0.149012163281441
1078,-17.1161417322835,-13.5812349319458,0.312322646379471,-9.41732283464567,-13.1798477172852,0.407465875148773
1079,-10.6646341463415,-13.5253248214722,0.523502111434937,-11.1817073170732,-13.1675310134888,0.562933683395386
1080,-14,-13.5011901855469,0.484242230653763,-12.75,-13.2097387313843,0.45787388086319
1081,-17.75,-13.5583219528198,-0.396396785974503,-15.4608294930876,-13.1853294372559,-0.247067138552666
1082,-10.4907932011331,-13.5488033294678,0.421538650989532,-12.5240793201133,-13.1786670684814,0.42759120464325
1083,-16.3949704142012,-13.5481042861938,0.293277144432068,-9.10502958579882,-13.1127014160156,0.161763578653336
1084,-15.3173515981735,-13.5458307266235,0.483056008815765,-5.08675799086758,-13.0439128875732,0.375053405761719
1085,-12.0942028985507,-13.55113697052,1.32195544242859,-13.4710144927536,-13.0723161697388,-0.329222977161407
1086,-15.75,-13.5396976470947,-0.412203878164291,-11.8550724637681,-13.0668296813965,-0.813999891281128
1087,-15.25,-13.5535144805908,0.458120971918106,-12.75,-13.0497674942017,0.418422222137451
1088,-14.8173316708229,-13.5548620223999,0.736909747123718,-15.1003740648379,-13.0565052032471,0.445092290639877
1089,-11.3926829268293,-13.5498819351196,0.205223381519318,-13.3670731707317,-13.076229095459,0.109468057751656
1090,-11.8148148148148,-13.5153141021729,-0.0544061660766602,-11.0787037037037,-13.0492086410522,0.1306411921978
1091,-13.1818181818182,-13.5374841690063,0.341969966888428,-13.5909090909091,-13.0404300689697,-0.191568672657013
1092,-15.077868852459,-13.5246238708496,0.520867347717285,-9.86475409836066,-13.0527315139771,0.407497942447662
1093,-14.1235632183908,-13.4912958145142,0.487885624170303,-6.33908045977011,-12.9954528808594,0.232260182499886
1094,-10,-13.4312953948975,0.522814214229584,-12.4285714285714,-13.0016431808472,0.163802459836006
1095,-13.4665605095541,-13.4376363754272,1.05497491359711,-10.3089171974522,-13.0199155807495,-0.460558235645294
1096,-8.56338028169014,-13.3680601119995,0.458960086107254,-21.5,-13.093092918396,0.1576908826828
1097,-11.7371794871795,-13.3029756546021,0.347821027040482,-12.2012820512821,-13.0695495605469,-0.283248692750931
1098,-9.93072289156627,-13.2764139175415,0.426306992769241,-13.25,-13.103645324707,0.221144393086433
1099,-14.6210691823899,-13.2472200393677,0.267744123935699,-12.2641509433962,-13.0754060745239,0.0963582992553711
1100,-19.8026315789474,-13.2901477813721,0.992308676242828,-9.22368421052632,-13.0356092453003,2.12224769592285
1101,-15.2708333333333,-13.3369045257568,0.448100686073303,-5.77083333333333,-13.0024156570435,-0.0610460042953491
1102,-9.72368421052632,-13.2984838485718,0.0158970803022385,-17,-13.0714807510376,0.228460475802422
1103,-10.3714285714286,-13.2659597396851,0.912092745304108,-14.4642857142857,-13.0579099655151,0.961978197097778
1104,-14,-13.2692279815674,0.482521325349808,-15.25,-13.0292825698853,0.443756997585297
1105,-11.4029411764706,-13.260573387146,-0.29543673992157,-16.3529411764706,-13.0166358947754,0.431214958429337
1106,-15.0131578947368,-13.2930021286011,0.306469738483429,-10.2236842105263,-13.0049352645874,0.484601438045502
1107,-16.5,-13.2981452941895,0.416962802410126,-12.75,-12.9743824005127,0.489781945943832
1108,-11.318345323741,-13.2602682113647,0.389728099107742,-11.8776978417266,-12.9606704711914,0.233916610479355
1109,-12.0112359550562,-13.2466564178467,-0.135859429836273,-12.3258426966292,-12.9326076507568,0.704838752746582
1110,-13.7973372781065,-13.2407808303833,0.223189800977707,-19.7189349112426,-12.9825506210327,0.345752358436584
1111,-9.72651933701657,-13.2039585113525,0.675630569458008,-12.4502762430939,-13.0222187042236,-0.059269979596138
1112,-11.7954545454545,-13.2045316696167,0.380994021892548,-9.41818181818182,-12.9250068664551,-0.257207036018372
1113,-19.2767489711934,-13.2694845199585,0.443947583436966,-9.34670781893004,-12.8955602645874,0.25762140750885
1114,-13.0584415584416,-13.226092338562,0.429267585277557,-12.538961038961,-12.8835744857788,-0.446791499853134
1115,-13.9222488038278,-13.2172403335571,1.12013494968414,-15.6913875598086,-12.8865165710449,0.596784710884094
1116,-5.44868995633188,-13.1641540527344,0.283865213394165,-8.14410480349345,-12.8522624969482,0.304856777191162
1117,-11.9891304347826,-13.2070693969727,0.51814728975296,-9.98913043478261,-12.865345954895,0.122534304857254
1118,-16.1410891089109,-13.2377424240112,0.230666503310204,-19,-12.9079656600952,-0.34990531206131
1119,-13.1590909090909,-13.2356929779053,0.179726347327232,-15.5909090909091,-12.9065999984741,0.449550032615662
1120,-11.1515748031496,-13.2409429550171,0.357039332389832,-15.0531496062992,-12.9009714126587,0.190299391746521
1121,-12.75,-13.2280464172363,0.391093850135803,-12.75,-12.8797101974487,0.298823356628418
1122,-17.9779874213836,-13.2290229797363,0.0723681822419167,-12.9575471698113,-12.8788452148438,0.217893958091736
1123,-14,-13.2368516921997,0.478206068277359,-9,-12.8805885314941,0.489007979631424
1124,-16.5,-13.2863788604736,0.530803442001343,-15.25,-12.9080686569214,0.385926902294159
1125,-12.5247440273038,-13.3182106018066,1.23911690711975,-17.2960750853242,-12.9300422668457,2.05040311813354
1126,-15.3421052631579,-13.3604135513306,0.282442212104797,-16.4671052631579,-12.928014755249,0.261997044086456
1127,-6.78658536585366,-13.3263902664185,0.482223927974701,-7.66158536585366,-12.8864908218384,-0.322770714759827
1128,-11.5252808988764,-13.2667121887207,0.645062267780304,-17.5140449438202,-12.9199800491333,-0.528996527194977
1129,-7.43788819875776,-13.2305173873901,0.27074134349823,-7.62888198757764,-12.9000158309937,0.406132459640503
1130,-15.5,-13.2231025695801,0.108246095478535,-15.3360534124629,-12.9079685211182,0.0596113801002502
1131,-11.9166666666667,-13.224422454834,0.489368140697479,-18.1170212765957,-12.9422903060913,-0.344700574874878
1132,-11.8711453744493,-13.1970720291138,0.130389675498009,-17.8711453744493,-12.9669580459595,0.22245180606842
1133,-13.2954545454545,-13.2261619567871,0.348921656608582,-7.68181818181818,-12.9323358535767,0.402716368436813
1134,-13.5130434782609,-13.2380952835083,0.422149837017059,-12.2913043478261,-12.9453382492065,-0.794027030467987
1135,-14.5,-13.2417459487915,0.473958969116211,-16.5,-12.9839897155762,0.130588084459305
1136,-4.1986301369863,-13.1771860122681,1.81006050109863,-19.1369863013699,-13.0081415176392,1.451416015625
1137,-18.3078034682081,-13.2195072174072,0.276914417743683,-13.6156069364162,-13.0432949066162,-0.972335457801819
1138,-8.03571428571429,-13.1475715637207,0.0792591720819473,-13.1428571428571,-13.0659141540527,0.393428832292557
1139,-14.3617021276596,-13.1416501998901,0.569065988063812,-9.93617021276596,-13.0138216018677,0.396768391132355
1140,-14.1122994652406,-13.1711750030518,0.435239791870117,-16.8930481283422,-13.0420408248901,0.16643413901329
1141,-12.75,-13.1792659759521,0.487109184265137,-15.25,-13.0226173400879,0.472904622554779
1142,-13.65,-13.1471767425537,0.423507332801819,-16.5,-13.0411415100098,-0.0904235541820526
1143,-6.7037037037037,-13.0750751495361,0.315216958522797,-14.6203703703704,-13.0654668807983,0.0892326831817627
1144,-17.09375,-13.1298313140869,0.183849304914474,-5.15625,-13.0456399917603,0.568521022796631
