EpisodeIndex,DQNEpisodeReward,DQNAverageReward,DQNEpisodeQ0,DDQNEpisodeReward,DDQNAverageReward,DDQNEpisodeQ0
1,-13.7224409448819,-13.7224407196045,0.0317477881908417,-9.89763779527559,-9.89763736724854,0.0431646667420864
2,-16.906976744186,-15.3147087097168,0.274947583675385,-14.3779069767442,-12.1377716064453,0.117664709687233
3,-10.3260869565217,-13.6518354415894,0.00828458368778229,-24,-16.0918483734131,0.0116239469498396
4,-15.5852272727273,-14.1351833343506,0.0481069944798946,-22.75,-17.7563858032227,0.0170390550047159
5,-9.40897755610973,-13.18994140625,0.0660682842135429,-17.7923940149626,-17.7635879516602,0.0139187956228852
6,-14.1117318435754,-13.3435735702515,0.0256794076412916,-21.5,-18.386323928833,0.00322617380879819
7,-17.75,-13.9730625152588,0.0658521354198456,-19,-18.4739894866943,-0.0365442149341106
8,-13.1595238095238,-13.8713703155518,0.200620636343956,-24,-19.1647415161133,-0.0373391099274158
9,-11.6710037174721,-13.6268854141235,0.0853697508573532,-15.9163568773234,-18.8038101196289,-0.0451178327202797
10,-15.1316568047337,-13.777361869812,0.0074599520303309,-16.6952662721894,-18.5929565429688,0.00586970802396536
11,-21.5,-14.479419708252,0.0204909425228834,-16.5,-18.4026870727539,0.024283891543746
12,-13.6410891089109,-14.4095582962036,0.00190153357107192,-22.75,-18.7649631500244,-0.00828345026820898
13,-18.25,-14.7049770355225,0.450158178806305,-24,-19.1676597595215,-0.139892786741257
14,-21.5,-15.190336227417,0.572073757648468,-19.4131736526946,-19.1851959228516,0.0308315102010965
15,-17.75,-15.3609800338745,0.0615716651082039,-16.5,-19.0061836242676,0.0019746555481106
16,-15.25,-15.3540439605713,0.168509587645531,-19,-19.0057964324951,0.0196343250572681
17,-14.8618421052632,-15.3250913619995,0.193757846951485,-21.5,-19.1525135040283,0.0578045323491096
18,-18.1671779141104,-15.4829845428467,0.23651896417141,-20.25,-19.2134857177734,0.0425835438072681
19,-16.5682593856655,-15.5401048660278,0.927077114582062,-16.4317406143345,-19.0670776367188,-0.325069040060043
20,-21.4709141274238,-15.8366451263428,0.172116160392761,-11.8296398891967,-18.7052059173584,0.0842505171895027
21,-16.1826484018265,-15.8531217575073,0.189723074436188,-20.75,-18.8025779724121,0.0789045765995979
22,-15.3003875968992,-15.8279972076416,0.191715463995934,-14.2073643410853,-18.5937023162842,-0.0570602342486382
23,-17.0414364640884,-15.8807544708252,0.106850735843182,-14.9185082872928,-18.4339122772217,-0.0473612174391747
24,-16.3181818181818,-15.8989820480347,0.0673403888940811,-17.75,-18.4054164886475,-0.0498971454799175
25,-15.2439759036145,-15.8727807998657,0.110052525997162,-18.105421686747,-18.3934154510498,0.0864071995019913
26,-16.7605042016807,-15.9069232940674,0.108124732971191,-7.76680672268908,-17.9847011566162,0.0269440058618784
27,-19,-16.0214824676514,0.159709870815277,-17.4323308270677,-17.9642429351807,0.0969915613532066
28,-17.75,-16.083215713501,0.143116235733032,-19,-18.0012340545654,0.0555366165935993
29,-18.6671597633136,-16.1723175048828,0.231769680976868,-18.3476331360947,-18.0131797790527,-0.0705992802977562
30,-18.0784023668639,-16.2358531951904,0.198849067091942,-17.5399408284024,-17.9974040985107,0.135896578431129
31,-15.03125,-16.1969966888428,0.198228523135185,-14.46875,-17.8835773468018,0.148967579007149
32,-14.4157458563536,-16.1413307189941,0.192621633410454,-13.6740331491713,-17.7520275115967,0.160388469696045
33,-13.4512987012987,-16.059814453125,0.152804553508759,-14.0930735930736,-17.641149520874,0.158292412757874
34,-12.2803738317757,-15.948655128479,0.0932405143976212,-16.6588785046729,-17.6122589111328,0.0878103822469711
35,-16.1841359773371,-15.9553833007812,0.0521568581461906,-21.5,-17.7233371734619,0.00125155923888087
36,-18.25,-16.0191230773926,0.0682446882128716,-16.758064516129,-17.6965255737305,0.0101019423455
37,-13.3951612903226,-15.948205947876,0.203412652015686,-17.75,-17.6979694366455,-0.47340977191925
38,-16.5,-15.9627265930176,0.0698951557278633,-15.25,-17.6335506439209,0.11421986669302
39,-17.2464028776978,-15.9956398010254,0.117608718574047,-20.3723021582734,-17.7037754058838,0.185127824544907
40,-7.55263157894737,-15.7845659255981,0.14885313808918,-16.6973684210526,-17.6786155700684,0.159977629780769
41,-13.25,-15.7227468490601,0.11267563700676,-16.5,-17.6498680114746,0.108988866209984
42,-16.5,-15.7412528991699,0.129051342606544,-21.5,-17.7415370941162,0.108772665262222
43,-19.5,-15.8286647796631,0.48851352930069,-14.4842931937173,-17.6657886505127,-0.357224673032761
44,-13.2083333333333,-15.7691125869751,0.161046087741852,-7.35416666666667,-17.431432723999,0.0976011604070663
45,-11.1609756097561,-15.6667098999023,0.128412678837776,-13.3121951219512,-17.3398952484131,0.166384682059288
46,-12.155487804878,-15.5903797149658,0.0945734083652496,-14.594512195122,-17.2802124023438,0.100683331489563
47,-15.6854599406528,-15.5924024581909,0.0869443491101265,-21.3382789317507,-17.3665542602539,0.0369398146867752
48,-15.6799516908213,-15.5942258834839,-0.0359689183533192,-21.5,-17.4526672363281,-0.138737410306931
49,-6.72087378640777,-15.4131355285645,-0.0759597793221474,-11.3058252427184,-17.327220916748,-0.246448278427124
50,-14.2287234042553,-15.3894481658936,0.0209794864058495,-10.6436170212766,-17.1935501098633,-0.189752236008644
51,-13.3287037037037,-15.3490419387817,0.0721005871891975,-17.0787037037037,-17.1912994384766,-0.114703841507435
52,-13.1766666666667,-15.3072652816772,0.0750469416379929,-20.25,-17.2501201629639,-0.101850971579552
53,-11.0121951219512,-15.2262258529663,0.140005692839622,-17.75,-17.2595520019531,-0.0898725017905235
54,-15.6915584415584,-15.2348432540894,0.135650888085365,-18.4383116883117,-17.281379699707,-0.1225780621171
55,-11.1975308641975,-15.1614370346069,0.0992794036865234,-14.440329218107,-17.2297229766846,-0.169441148638725
56,-18.5388349514563,-15.2217473983765,0.061297994107008,-15.1529126213592,-17.1926383972168,-0.211268216371536
57,-17.75,-15.2661027908325,1.65295374393463,-17,-17.1892585754395,-1.16523098945618
58,-15,-15.2615146636963,0.0907618403434753,-7.60843373493976,-17.0240726470947,-0.123543590307236
59,-15.5147058823529,-15.2658071517944,0.0807736068964005,-17.2598039215686,-17.0280685424805,-0.0801778063178062
60,-15.609756097561,-15.2715396881104,0.118421792984009,-11.5243902439024,-16.9363403320312,-0.0374985486268997
61,-19,-15.3326616287231,0.0806215777993202,-16.5,-16.9291877746582,-0.0849202424287796
62,-15.1842105263158,-15.3302669525146,1.20926761627197,-15.1842105263158,-16.9010429382324,-0.765174210071564
63,-10.4203296703297,-15.2523317337036,1.34864044189453,-20.25,-16.9542007446289,-0.689773499965668
64,-21.145,-15.3444042205811,0.198908641934395,-10.85,-16.8588218688965,0.0100094638764858
65,-16.5,-15.3621826171875,1.1514265537262,-11.8767123287671,-16.7821731567383,1.22323703765869
66,-13.3506289308176,-15.3317041397095,0.205382704734802,-15,-16.7551708221436,0.0130562586709857
67,-7.75,-15.2185440063477,0.233686894178391,-16.5,-16.7513637542725,0.0249756760895252
68,-16.5674603174603,-15.2383813858032,0.199403777718544,-7.28968253968254,-16.6122207641602,0.0127344848588109
69,-17.75,-15.2747821807861,0.20722708106041,-15.25,-16.5924777984619,0.113017067313194
70,-19,-15.3279991149902,0.152445405721664,-16.5,-16.5911560058594,0.111186929047108
71,-15.6856725146199,-15.3330373764038,0.200805678963661,-22.75,-16.6779003143311,0.173328548669815
72,-14,-15.3145227432251,0.149931207299232,-16.5,-16.6754302978516,0.0743410289287567
73,-17.8526200873362,-15.3492918014526,0.124445348978043,-14.5,-16.6456298828125,0.0546923205256462
74,-12.8928571428571,-15.3160963058472,-0.0406132340431213,-14,-16.6098785400391,-0.143197074532509
75,-13.8445945945946,-15.2964763641357,0.268621385097504,-9.90315315315315,-16.5204563140869,0.11429475992918
76,-16.3876404494382,-15.3108329772949,0.270594239234924,-7.9747191011236,-16.4080123901367,0.063883900642395
77,-17.6231884057971,-15.3408651351929,0.10547449439764,-11.2282608695652,-16.3407421112061,-0.00218378868885338
78,-14.214953271028,-15.3264303207397,0.226354047656059,-20.25,-16.3908615112305,0.050022266805172
79,-12.0882352941176,-15.2854404449463,0.222135558724403,-9.48823529411765,-16.3034858703613,0.0478045679628849
80,-14.4634831460674,-15.275164604187,0.184052422642708,-13.3623595505618,-16.2667217254639,-0.33586773276329
81,-7.83928571428571,-15.1833648681641,0.151159197092056,-14.4642857142857,-16.2444686889648,0.0606484487652779
82,-9.3942731277533,-15.1127662658691,0.0791023522615433,-12.2356828193833,-16.1955833435059,0.0508344210684299
83,-16.9599156118143,-15.1350212097168,1.47969794273376,-8.12025316455696,-16.0982894897461,0.018835237249732
84,-3.82647058823529,-15.000394821167,0.191682875156403,-2.06176470588235,-15.9311876296997,0.0255129430443048
85,-7.2247191011236,-14.9089164733887,0.177324667572975,-20.25,-15.9819965362549,0.0716860592365265
86,-18.25,-14.9477663040161,0.190551668405533,-16.7,-15.9903450012207,0.018030883744359
87,-12.75,-14.9225053787231,0.0954700857400894,-14,-15.9674673080444,-0.0767966136336327
88,-16.5,-14.9404306411743,0.197983637452126,-16.5,-15.9735193252563,0.0575088188052177
89,-12.2327586206897,-14.910008430481,0.212016701698303,-6.52011494252874,-15.8673028945923,0.149394571781158
90,-15.5011627906977,-14.9165754318237,0.197122871875763,-10.5639534883721,-15.8083763122559,0.114353068172932
91,-12.3097826086957,-14.8879299163818,0.179474890232086,-16.5054347826087,-15.8160362243652,0.103523254394531
92,-16.7278481012658,-14.9079284667969,0.175773248076439,-10.7816455696203,-15.7613153457642,0.133232891559601
93,-21.5,-14.9788112640381,0.13139446079731,-11.6025641025641,-15.7165975570679,-0.110114395618439
94,-15.6593959731544,-14.9860515594482,0.218976303935051,-11.5436241610738,-15.6722040176392,0.137642785906792
95,-14.3055555555556,-14.9788885116577,0.207317113876343,-12.7962962962963,-15.6419305801392,0.151969119906425
96,-12.4082278481013,-14.9521102905273,0.256165981292725,-12.4177215189873,-15.6083450317383,0.185796141624451
97,-11.5,-14.9165210723877,0.314118683338165,-15.25,-15.6046504974365,0.166707783937454
98,-9.54066985645933,-14.8616666793823,0.321546912193298,-15.7093301435407,-15.6057195663452,0.0252658911049366
99,-7.75,-14.7898321151733,0.305824398994446,-11.5,-15.5642471313477,0.123660318553448
100,-19.255905511811,-14.8344917297363,0.327187329530716,-10.4409448818898,-15.5130138397217,0.154503464698792
101,-18.1475609756098,-14.8672952651978,0.20628097653389,-17.6451219512195,-15.5341243743896,0.0624766424298286
102,-17.1742857142857,-14.8899126052856,0.199372231960297,-16.6742857142857,-15.5453023910522,-0.0201074369251728
103,-10.5487465181058,-14.8477649688721,0.289848387241364,-11.2486072423398,-15.5035858154297,0.00297795608639717
104,-15.25,-14.8516330718994,0.28871613740921,-4,-15.3929748535156,0.0678352564573288
105,-11.5,-14.819712638855,0.333537131547928,-15.25,-15.3916130065918,0.22356316447258
106,-14.961038961039,-14.8210458755493,0.338102370500565,-5.57792207792208,-15.2990312576294,0.268483966588974
107,-12.3695652173913,-14.798134803772,0.353050708770752,-10.1195652173913,-15.2506256103516,0.250975608825684
108,-15.25,-14.802318572998,0.349724471569061,-17.75,-15.2737674713135,0.198034256696701
109,-14,-14.794958114624,0.335833668708801,-14,-15.2620811462402,0.168054431676865
110,-14.1036269430052,-14.7886743545532,0.33465850353241,-3.03756476683938,-15.1509494781494,0.192665114998817
111,-21.5,-14.8491363525391,0.131643041968346,-11.1637931034483,-15.1150302886963,-0.127345740795135
112,-11.1050295857988,-14.8157062530518,0.293791562318802,-3.54289940828402,-15.0117082595825,0.137454092502594
113,-9.2962962962963,-14.7668628692627,0.214904859662056,-9.89417989417989,-14.9664192199707,0.0207536462694407
114,-18,-14.7952241897583,0.30655762553215,-19.9598930481283,-15.0102214813232,0.0404821373522282
115,-8.58606557377049,-14.7412300109863,0.342665612697601,-12.2704918032787,-14.9863977432251,0.0406359657645226
116,-14.6709956709957,-14.7406244277954,0.368493229150772,-10.2792207792208,-14.945818901062,0.0843512117862701
117,-9.90909090909091,-14.6993293762207,0.125492408871651,-14.5,-14.9420080184937,-0.409169912338257
118,-13.5629032258065,-14.6896982192993,-0.301507085561752,-14.3161290322581,-14.9367036819458,-0.347124487161636
119,-15.7327586206897,-14.6984634399414,0.256365954875946,-6.45689655172414,-14.8654451370239,0.157195031642914
120,-16.5,-14.7134761810303,0.289431303739548,-14,-14.8582324981689,0.206210598349571
121,-10.1315789473684,-14.675609588623,0.273866593837738,-16.6842105263158,-14.8733234405518,0.143923491239548
122,-10.2478540772532,-14.6393175125122,0.232361927628517,-9.34442060085837,-14.8280048370361,0.129258379340172
123,-17.0917159763314,-14.659255027771,-0.0229445211589336,-5.05325443786982,-14.7485361099243,-0.187190294265747
124,-15,-14.6620035171509,0.122058905661106,-8.45454545454546,-14.6977787017822,0.0694137513637543
125,-13.25,-14.650707244873,0.116094820201397,-12.0744680851064,-14.6767921447754,0.0349031127989292
126,-5.34119496855346,-14.5768222808838,0.268461227416992,-6.84276729559748,-14.6146173477173,0.117459863424301
127,-13.1359649122807,-14.5654764175415,0.231559976935387,-16.0263157894737,-14.625732421875,0.0894562751054764
128,-2.84656084656085,-14.4739227294922,0.0400269851088524,-6.77910052910053,-14.5644302368164,-0.309259712696075
129,-13.0760869565217,-14.4630861282349,0.238114431500435,-12.1684782608696,-14.5458564758301,-0.0316415093839169
130,-9,-14.4210624694824,0.170680910348892,-14,-14.5416574478149,-0.148149564862251
131,-10.6647465437788,-14.392388343811,0.300501942634583,-10.5725806451613,-14.511360168457,-0.02680828794837
132,-8.3368544600939,-14.3465127944946,0.273097366094589,-14.4131455399061,-14.5106163024902,0.0371326468884945
133,-3.09393063583815,-14.2619075775146,0.141028106212616,-14.9421965317919,-14.5138607025146,0.0193788874894381
134,-18.2017543859649,-14.2913093566895,0.17569388449192,4.39912280701754,-14.3727188110352,0.0689069777727127
135,-14.45,-14.2924852371216,0.186258152127266,-3.8,-14.2944030761719,0.0403420329093933
136,-12.3068181818182,-14.2778844833374,0.223635002970695,-9.27272727272727,-14.2574787139893,0.0570899210870266
137,-9.06140350877193,-14.2398071289062,0.219030261039734,-8.01608187134503,-14.2119207382202,0.0722913965582848
138,-9,-14.2018375396729,0.255209296941757,-14,-14.2103843688965,0.118892833590508
139,-6.57727272727273,-14.1469850540161,0.343390166759491,-3.52727272727273,-14.1335277557373,-0.106761619448662
140,-15.547619047619,-14.1569890975952,0.270609706640244,-10.8690476190476,-14.1102094650269,-0.435358315706253
141,-18.25,-14.1860179901123,0.357290536165237,-19,-14.1448888778687,0.0898489952087402
142,-10.25,-14.158299446106,0.476930886507034,-15.25,-14.1526708602905,0.199202373623848
143,-13.9887755102041,-14.1571140289307,0.428298354148865,-13.2785714285714,-14.1465587615967,0.186132878065109
144,-12.75,-14.1473426818848,0.331396728754044,-15.25,-14.154221534729,0.217451274394989
145,-9.40425531914894,-14.114631652832,0.287297010421753,-14.8191489361702,-14.1588096618652,0.187044382095337
146,-4.02722772277228,-14.0455408096313,0.252557098865509,-9.11386138613862,-14.1242542266846,0.109051808714867
147,-12.8996815286624,-14.0377435684204,0.259644508361816,-10.1035031847134,-14.0969018936157,0.106911718845367
148,-7.51267281105991,-13.9936552047729,0.196461901068687,-13.25,-14.0911798477173,-0.0849926695227623
149,-2.42352941176471,-13.9160060882568,0.213524475693703,-18.0029411764706,-14.1174335479736,-0.0257092174142599
150,0.428403755868545,-13.8203744888306,0.268186509609222,-3.95070422535211,-14.0496549606323,0.0425526052713394
151,-11.5,-13.8055601119995,0.121610954403877,-14,-14.0770034790039,-0.00742879509925842
152,-11.364161849711,-13.7686071395874,0.23089674115181,-9.90173410404624,-14.0471630096436,0.13905942440033
153,-14.9264705882353,-13.7992753982544,0.272767603397369,-12.6519607843137,-13.9715089797974,0.215466946363449
154,-6.30333333333333,-13.7373962402344,0.272803246974945,-12,-13.8998403549194,0.201798394322395
155,-17.7801204819277,-13.7932033538818,0.319291472434998,-8.2710843373494,-13.8363656997681,0.241909578442574
156,-8.33895705521472,-13.7547187805176,0.306447565555573,-15.1671779141104,-13.7941474914551,0.121910274028778
157,-7.64912280701754,-13.6873798370361,0.325076282024384,-7.05263157894737,-13.7144966125488,0.0643368065357208
158,-7.44094488188976,-13.6492557525635,0.351139038801193,-13.6909448818898,-13.6457710266113,0.00330603029578924
159,-12.2672955974843,-13.6532316207886,0.326939433813095,-10.4716981132075,-13.6094732284546,-0.0741195678710938
160,-6.3439226519337,-13.5946464538574,0.290070384740829,-6.44337016574586,-13.541127204895,-0.160498455166817
161,-9.39130434782609,-13.5139217376709,0.313915967941284,-11.2826086956522,-13.5063447952271,-0.052779246121645
162,-11.5625,-13.5000638961792,0.260790914297104,-9.52840909090909,-13.4182014465332,-0.0900365337729454
163,2.26608187134503,-13.3632898330688,0.257690042257309,-8.83479532163743,-13.317099571228,0.000637524062767625
164,-14.5,-13.3166236877441,0.57721471786499,-13.25,-13.2760124206543,-0.59894859790802
165,-8.29761904761905,-13.253607749939,0.477178007364273,-5.75,-13.204345703125,-0.491279453039169
166,-16.6010638297872,-13.2626152038574,0.39733099937439,-4.81382978723404,-13.1097717285156,0.0704671293497086
167,-14.6695906432749,-13.2613334655762,0.282075792551041,-7.03216374269006,-13.0133199691772,-0.0211765673011541
168,-6.46686746987952,-13.1833305358887,0.320322334766388,-5.75,-12.9166526794434,0.135028630495071
169,-5.16926345609065,-13.1073379516602,0.241947680711746,1.58498583569405,-12.7965402603149,0.133704617619514
170,-10.7848837209302,-13.0360975265503,-0.190059214830399,-7.87209302325581,-12.7701568603516,-0.183442354202271
171,-8.63277511961723,-12.9857654571533,0.045111108571291,-4.67703349282297,-12.6630039215088,0.191741794347763
172,-6.98214285714286,-12.9303102493286,0.215826228260994,-5.03571428571429,-12.6018590927124,0.208468168973923
173,-12.7826409495549,-12.9019184112549,0.326705694198608,-19.2210682492582,-12.6305437088013,0.232384994626045
174,-16.5,-12.9031295776367,0.218744471669197,-10.25,-12.5805435180664,0.11632151901722
175,-7.75,-12.8531703948975,0.27985092997551,-7.75,-12.5115070343018,0.225504919886589
176,-13.6184210526316,-12.8322229385376,0.301818400621414,-14.5,-12.5563945770264,0.280917465686798
177,-6.27727272727273,-12.7474060058594,0.76786607503891,-7.54545454545454,-12.4904823303223,-0.195182010531425
178,-17.375,-12.7449054718018,0.26161190867424,-14.7291666666667,-12.462010383606,0.151972323656082
179,-8.56366459627329,-12.6775484085083,0.291137158870697,-14.1242236024845,-12.4338541030884,0.29145473241806
180,-7.26510067114094,-12.6054592132568,0.308663547039032,-7.83724832214765,-12.3691701889038,0.250895738601685
181,-2.25,-12.5202503204346,0.348537176847458,-14.25,-12.367712020874,0.292649120092392
182,-2.22044604925031e-16,-12.4241466522217,0.188510611653328,-3.07,-12.2970180511475,0.0270807053893805
183,-7.75,-12.3861379623413,0.304199308156967,-10.25,-12.2713975906372,0.198620826005936
184,-10.25,-12.3726015090942,0.400021344423294,-10.25,-12.2286720275879,0.280734539031982
185,-4.23056994818653,-12.2929105758667,0.352025866508484,-0.282383419689119,-12.0872211456299,0.25065016746521
186,-7.52027027027027,-12.2213792800903,0.450752228498459,-16.0630630630631,-12.0825872421265,0.377119421958923
187,-5.08823529411765,-12.1660003662109,0.418625056743622,-3.27352941176471,-11.9860763549805,0.333735883235931
188,-9.10502958579882,-12.1167001724243,0.453854739665985,-13.8683431952663,-11.9768657684326,0.230562776327133
189,-10.4683098591549,-12.0715131759644,0.372564911842346,-16.6009389671362,-11.9517240524292,0.0860861837863922
190,-10.2673913043478,-12.0896110534668,0.336021989583969,-10.4239130434783,-11.9099006652832,-0.106135010719299
191,-7.77777777777778,-12.0531301498413,0.296474784612656,-8.24074074074074,-11.8548393249512,-0.151898413896561
192,-9.41935483870968,-12.0059261322021,0.328095227479935,-10.4381720430108,-11.7810926437378,-0.0958969667553902
193,-8.32553956834532,-11.9314289093018,0.29248046875,-2.00359712230216,-11.6978883743286,-0.012882998213172
194,-9.6063829787234,-11.907416343689,0.248875796794891,-8.54787234042553,-11.705846786499,-0.00614282954484224
195,-9.57963988919668,-11.8968744277954,0.275903642177582,-8.88919667590028,-11.6763601303101,0.0117645785212517
196,-8.17045454545454,-11.870306968689,0.27256777882576,-4.77272727272727,-11.6108818054199,-0.119838163256645
197,-10.4130434782609,-11.8351583480835,0.223118096590042,-11.7330917874396,-11.5468463897705,-0.0921214371919632
198,-10.6441798941799,-11.801586151123,0.257180064916611,-14.2883597883598,-11.4987688064575,-0.173917457461357
199,-7.29126213592233,-11.8053894042969,0.200059860944748,-3.94417475728155,-11.4496917724609,-0.159638494253159
200,-8.81179775280899,-11.7692756652832,0.273966640233994,-4.42415730337079,-11.4082279205322,-0.0105941165238619
201,-6.14939024390244,-11.7214136123657,0.285452246665955,-2.36890243902439,-11.3101634979248,0.0232262443751097
202,-2.22368421052632,-11.6483936309814,2.41776371002197,-7.02631578947368,-11.2220058441162,0.583084940910339
203,-4.78947368421053,-11.6069087982178,0.233436539769173,-1.35526315789474,-11.1127071380615,-0.0213818345218897
204,-6.40037593984962,-11.5449676513672,0.352074861526489,-4.66917293233083,-11.0209131240845,0.250847280025482
205,-4,-11.4969844818115,0.370143055915833,-10.25,-10.9929780960083,0.24374033510685
206,-10.25,-11.441725730896,0.515397846698761,-14,-10.9852914810181,0.265829265117645
207,-6.59979423868313,-11.3673906326294,0.468958526849747,-2.00205761316872,-10.8853054046631,0.27189239859581
208,-13.7130177514793,-11.358811378479,0.467574566602707,2.3491124260355,-10.8189220428467,0.278706192970276
209,-3.80458515283843,-11.2807426452637,0.332439750432968,-4.28275109170306,-10.7324075698853,0.0230602063238621
210,-8.42365269461078,-11.232834815979,1.74526822566986,0.510479041916168,-10.6521759033203,0.337969481945038
211,-15,-11.2061681747437,0.415401488542557,-1.83018867924528,-10.5543775558472,0.0614707246422768
212,-11.5,-11.1816082000732,0.49947252869606,-14,-10.546483039856,0.265324503183365
213,-5.61363636363636,-11.1495637893677,0.321902990341187,-14.9318181818182,-10.5110282897949,-0.197299495339394
214,-9.475,-11.0717630386353,0.363552987575531,-4.85,-10.4710273742676,0.24822399020195
215,-8.73048780487805,-11.0199670791626,0.317833781242371,2.03170731707317,-10.3783044815063,0.165781646966934
216,-5.25,-10.9659624099731,0.465711027383804,-4,-10.3049716949463,0.379649013280869
217,-12.75,-10.9992961883545,0.529224097728729,-12.75,-10.2799711227417,0.376797497272491
218,-7.72368421052632,-10.9403371810913,0.362525165081024,-4.97368421052632,-10.2645311355591,0.221570044755936
219,-3.02011494252874,-10.8421382904053,0.352265119552612,-9.55459770114943,-10.2265625,0.197817012667656
220,-9,-10.7754716873169,0.578116595745087,-10.25,-10.1848955154419,0.455877542495728
221,-6.5,-10.7142333984375,0.619327187538147,-11.5,-10.1098957061768,0.456850647926331
222,-16.1856223175966,-10.7288036346436,0.42657858133316,-8.09978540772532,-10.0538940429688,0.181416556239128
223,-9.01341463414634,-10.6698760986328,0.41928043961525,-4.49634146341463,-9.98720264434814,0.20667240023613
224,-13.0639534883721,-10.6710166931152,0.30918487906456,-10.2228682170543,-9.96202182769775,0.0435507521033287
225,-3.28333333333333,-10.6006088256836,0.433356881141663,2.7,-9.87800025939941,0.189368262887001
226,-10.5271739130435,-10.5615396499634,0.381389975547791,-0.597826086956522,-9.82882118225098,0.0935549512505531
227,-6.43181818181818,-10.4869298934937,0.267893731594086,-12.7045454545455,-9.83866405487061,0.108749471604824
228,-6.5,-10.4354982376099,0.550772786140442,-7.75,-9.75533008575439,0.329266369342804
229,-10.8660409556314,-10.4273490905762,2.87055683135986,-12.8882252559727,-9.77799701690674,0.585024058818817
230,-14,-10.424259185791,0.634201884269714,-14,-9.78224754333496,0.413577079772949
231,-0.526315789473684,-10.375506401062,0.471622228622437,-6.34868421052632,-9.7281436920166,0.303379267454147
232,4.62903225806452,-10.2820167541504,0.0739145204424858,-10.1290322580645,-9.71409893035889,-0.2132258862257
233,-4,-10.1956167221069,0.715373933315277,-9,-9.71996402740479,0.412624776363373
234,-5.1017316017316,-10.204119682312,0.460025697946548,0.63961038961039,-9.70195484161377,0.320288628339767
235,0.58076923076923,-10.1520833969116,0.313836395740509,-1.82948717948718,-9.57915210723877,-0.092801995575428
236,-10.320652173913,-10.0992202758789,0.305746376514435,-12.375,-9.55031871795654,0.198961764574051
237,-10.25,-10.0825538635254,0.618722379207611,-14,-9.55031871795654,0.376390278339386
238,-1.4529702970297,-9.98224067687988,0.366447389125824,-10.7351485148515,-9.51188659667969,0.20265956223011
239,1.9018691588785,-9.8880090713501,0.33473801612854,-2.96728971962617,-9.48820114135742,0.142402797937393
240,-12.581223628692,-9.86854362487793,3.55858588218689,-11.8755274261603,-9.49694538116455,0.970423638820648
241,-11.6582278481013,-9.8641996383667,0.375682473182678,-7.37341772151899,-9.43606472015381,0.125380918383598
242,-6.29126984126984,-9.79462242126465,0.508802354335785,-5.44444444444444,-9.40048313140869,0.335470825433731
243,-1.25,-9.65962219238281,0.441848933696747,-3.71518105849582,-9.347900390625,0.179813623428345
244,-4.38165680473373,-9.58443737030029,2.62847447395325,-10.3284023668639,-9.33979988098145,1.30359435081482
245,2.43265306122449,-9.47284984588623,0.284917771816254,1.39489795918367,-9.24519062042236,0.0684381127357483
246,-8.43721461187215,-9.44637584686279,0.339900016784668,-2.0958904109589,-9.17637825012207,0.182189330458641
247,-5.25,-9.404709815979,0.533995568752289,-6.5,-9.11804485321045,0.428905040025711
248,-6.5,-9.38443851470947,0.632429718971252,-9,-9.073317527771,0.516077041625977
249,-9.88624338624339,-9.39867973327637,0.328751504421234,-15.7791005291005,-9.10184383392334,0.139366775751114
250,-10.1857142857143,-9.33821201324463,0.348628044128418,0.873809523809524,-9.02641201019287,-0.0983283743262291
251,1.56043956043956,-9.20682525634766,3.04105472564697,-2.57967032967033,-8.92597579956055,1.69784653186798
252,-7.535,-9.14256381988525,0.541482090950012,-6.805,-8.86018085479736,0.311247587203979
253,-14.3407643312102,-9.16784381866455,0.58178985118866,-7.98566878980892,-8.83842754364014,0.423252940177917
254,-2.37557603686636,-9.0820140838623,0.487254291772842,-2.14516129032258,-8.82606220245361,0.26048356294632
255,-11.9463414634146,-9.08498954772949,0.520838141441345,-14.8439024390244,-8.82335472106934,0.287636518478394
256,-14,-9.07858276367188,0.569960176944733,-7.75,-8.83783531188965,0.346788644790649
257,-6.46696035242291,-9.039231300354,0.381369203329086,-8.11123348017621,-8.82444667816162,0.103578887879848
258,-0.976635514018692,-8.94407558441162,0.259679913520813,2.92289719626168,-8.68662643432617,0.159734606742859
259,-5.9185393258427,-8.8902006149292,0.475963711738586,-15.5870786516854,-8.6972074508667,0.441771656274796
260,-14,-8.88950824737549,0.573756754398346,-10.25,-8.74528980255127,0.414370179176331
261,-4.71739130434783,-8.77762508392334,0.631163537502289,-6.18478260869565,-8.71209621429443,-0.195402547717094
262,-5.25,-8.73859119415283,0.57308429479599,-11.5,-8.76514339447021,0.425826787948608
263,-2.34101382488479,-8.69222354888916,0.369348227977753,-5.1705069124424,-8.73365211486816,0.0325388684868813
264,-5.62671232876712,-8.60973453521729,4.51037168502808,0.739726027397261,-8.5956563949585,5.76592254638672
265,-9.39344262295082,-8.61511707305908,0.858616292476654,-5.10655737704918,-8.54789543151855,0.574490606784821
266,-10.3838582677165,-8.5865364074707,0.520012199878693,-7.34251968503937,-8.52831745147705,0.195646822452545
267,-5.10055865921788,-8.55447959899902,0.491694003343582,-0.516759776536313,-8.43509578704834,0.355592042207718
268,-6.12804878048781,-8.50491333007812,0.445100367069244,-4.84146341463415,-8.3719310760498,0.100569486618042
269,0.241784037558685,-8.39841651916504,0.383992195129395,6.57629107981221,-8.28504371643066,0.0956402570009232
270,-3.39893617021277,-8.31107616424561,0.493134558200836,1.70035460992908,-8.18037414550781,0.0944684445858002
271,-4.3764367816092,-8.27270793914795,0.715635240077972,-7.35632183908046,-8.11818885803223,0.040698379278183
272,-4.00454545454545,-8.23108673095703,0.496282458305359,3.47727272727273,-8.03271102905273,0.15606115758419
273,3.47222222222222,-8.09399318695068,0.442227154970169,2.71296296296296,-7.9809365272522,0.192267179489136
274,-6.36764705882353,-8.03644466400146,0.448887079954147,-2.38235294117647,-7.9404559135437,0.259559899568558
275,0.497899159663866,-7.9447922706604,0.402363300323486,-3.08193277310924,-7.8805046081543,0.101798251271248
276,-9.44155844155844,-7.97212791442871,0.416625678539276,-8.4512987012987,-7.89122867584229,0.136050894856453
277,-16.25,-7.9928879737854,0.376678377389908,-9.38609467455621,-7.84695959091187,0.0940746963024139
278,-8.23204419889503,-8.0287914276123,0.323184579610825,-9.11049723756906,-7.86250257492065,0.3382169008255
279,-6.65229885057471,-7.98596620559692,0.30636802315712,0.137931034482759,-7.78045988082886,0.321519523859024
280,-11.3401486988848,-8.00156784057617,0.295245826244354,-0.174721189591079,-7.68829202651978,0.258589923381805
281,-8.0668449197861,-7.98424816131592,0.412722051143646,-3.99465240641711,-7.64443826675415,0.188179209828377
282,-13.75,-8.02033519744873,0.3700051009655,1.32142857142857,-7.53954124450684,0.257749110460281
283,-2.8960396039604,-8.01901531219482,0.291717410087585,-1.9529702970297,-7.45294761657715,0.0500159375369549
284,-7.95,-7.95067071914673,0.238643020391464,-4.67142857142857,-7.51341819763184,0.0836528018116951
285,-9.39855072463768,-7.91699457168579,0.509310662746429,-2.42391304347826,-7.50424337387085,0.385473936796188
286,-9.03481012658228,-7.89518165588379,0.402694493532181,-7.89873417721519,-7.49508380889893,0.159011915326118
287,-1.78398058252427,-7.8466649055481,0.468227595090866,-6.34708737864078,-7.48395681381226,0.258137345314026
288,-7.45454545454546,-7.83636236190796,0.542242228984833,-4.97727272727273,-7.42380523681641,0.0679536610841751
289,-6.68290043290043,-7.83706617355347,0.432674646377563,2.06493506493506,-7.38652324676514,0.26326847076416
290,7.2753164556962,-7.68491363525391,2.19175958633423,0.680379746835444,-7.30952787399292,3.39479446411133
291,-11.5,-7.63991355895996,0.70853191614151,-7.75,-7.23452806472778,0.522293746471405
292,-2.4,-7.58757972717285,0.577601253986359,-1.53529411764706,-7.14309549331665,0.367567390203476
293,-9,-7.5543212890625,0.715268015861511,-7.75,-7.1062388420105,0.627096593379974
294,-6.43343195266272,-7.51221132278442,0.830725133419037,-6.36834319526627,-7.04702806472778,0.534920990467072
295,-11.8915211970075,-7.52879333496094,0.586201190948486,-3.71571072319202,-6.9730052947998,0.602628886699677
296,-9.37096774193548,-7.56441831588745,1.35180830955505,-11.5,-6.98891258239746,0.979842245578766
297,-2.75,-7.49675273895264,0.685068368911743,-7.75,-6.97322273254395,0.465058714151382
298,-7.75,-7.49833488464355,0.929042160511017,-10.25,-6.95322275161743,0.629015505313873
299,-11.5604651162791,-7.55924797058105,0.581226944923401,-11.1883720930233,-6.90779209136963,0.313115149736404
300,-15.75,-7.66710472106934,0.794054627418518,-10.935393258427,-6.9543571472168,0.492868840694427
301,0.026470588235294,-7.59026193618774,0.630482077598572,-9.48823529411765,-6.9242787361145,0.447473764419556
302,-1.5,-7.52450037002563,0.874996662139893,-2.75,-6.87659978866577,0.623692452907562
303,-3.95760233918129,-7.45137453079224,0.530066728591919,-1.74561403508772,-6.8038911819458,0.324125021696091
304,-3.42058823529412,-7.43215656280518,0.625226020812988,-3.16764705882353,-6.74500894546509,0.316780984401703
305,-1.04881656804734,-7.32061433792114,2.6150906085968,-6.88165680473373,-6.73574638366699,2.6143205165863
306,8.19600938967136,-7.21038103103638,0.420551389455795,-2.68779342723005,-6.6525502204895,0.205235227942467
307,-4.94444444444444,-7.19235038757324,0.458270817995071,-3.4,-6.62819910049438,0.265634298324585
308,-10.25,-7.2110767364502,0.865644574165344,-10.25,-6.60525941848755,0.559740781784058
309,-3.14285714285714,-7.15024757385254,0.785137116909027,7.3,-6.48678159713745,0.39331391453743
310,-7.75,-7.15962076187134,0.907007992267609,-7.75,-6.49549245834351,0.633917689323425
311,-13.0869098712446,-7.18425846099854,0.595783054828644,-7.75751072961373,-6.47199201583862,0.272367000579834
312,-1.15760869565217,-7.11489248275757,0.348940789699554,-12.8586956521739,-6.49419403076172,0.306982725858688
313,-1.5046468401487,-7.14003086090088,0.364148199558258,0.210966542750929,-6.43388891220093,0.160526603460312
314,7.44674556213018,-6.99371910095215,0.870412945747375,-5.40828402366864,-6.38161087036133,0.257661521434784
315,-7.17441860465116,-6.98623132705688,0.580951511859894,-7.44186046511628,-6.39288997650146,0.213678285479546
316,-6.30299539170507,-6.91757726669312,0.437061041593552,-6.92165898617511,-6.40694189071655,0.245801419019699
317,-5.01807228915663,-6.85323333740234,0.495312303304672,-4.74397590361446,-6.39168739318848,0.33623743057251
318,-17.1511627906977,-6.92446184158325,0.95381623506546,-6.36627906976744,-6.39579582214355,1.08191704750061
319,-3.33994708994709,-6.91226720809937,0.415739864110947,-4.56084656084656,-6.43676805496216,0.115116350352764
320,1.625,-6.82953453063965,0.446747243404388,-5.475,-6.42078733444214,0.196296036243439
321,2.7280701754386,-6.7537956237793,0.55063670873642,-3.98684210526316,-6.41618633270264,0.213770419359207
322,-7.96472392638037,-6.76034593582153,0.548143088817596,-2.54907975460123,-6.39960861206055,0.162225395441055
323,0.0049504950495054,-6.67509508132935,0.430890411138535,-1.0519801980198,-6.27848148345947,0.180803298950195
324,-4,-6.59176206588745,0.749816060066223,-7.75,-6.2618145942688,0.519241034984589
325,-4,-6.56676197052002,0.790649473667145,-1.5,-6.22014808654785,0.546312868595123
326,-5.14304812834225,-6.51025915145874,0.625238120555878,-2.6644385026738,-6.14124441146851,0.311725616455078
327,-7.63502109704641,-6.51931047439575,5.38112545013428,-7.17405063291139,-6.13876819610596,3.86397433280945
328,-3.54333333333333,-6.42709970474243,0.510726690292358,-4.60666666666667,-6.07128477096558,0.414090245962143
329,-5.48936170212766,-6.40660429000854,0.527950406074524,1.87234042553191,-5.96464109420776,0.256443232297897
330,-12.6599099099099,-6.44257020950317,0.525028765201569,-8.86711711711712,-5.97150707244873,0.386622756719589
331,-3.24,-6.44917011260986,0.450112253427505,7.95571428571428,-5.82346868515015,0.146108061075211
332,-9,-6.5091700553894,0.796241402626038,-11.5,-5.87966871261597,0.543816089630127
333,-11.5814606741573,-6.53471279144287,0.795371532440186,-1.48595505617978,-5.82124185562134,0.792424201965332
334,-7.75,-6.5180459022522,0.913028836250305,-9,-5.81290864944458,0.688999593257904
335,-5.25,-6.52484273910522,0.94511216878891,-5.25,-5.8460259437561,0.813024997711182
336,-4,-6.50137424468994,0.962891280651093,-0.25,-5.74060535430908,0.679471015930176
337,1.8125,-6.45536947250366,0.899219810962677,-4.4375,-5.74836492538452,0.672438383102417
338,-6.45322580645161,-6.43769025802612,0.476071357727051,-0.211290322580645,-5.65731859207153,0.440187156200409
339,-1.81796116504854,-6.38002157211304,0.617995917797089,-7.65291262135922,-5.59766483306885,0.235002025961876
340,-6.49712643678161,-6.35488653182983,0.75120347738266,0.0114942528735629,-5.52809572219849,0.311665177345276
341,-2.35024154589372,-6.31870269775391,0.804603397846222,1.44685990338164,-5.46351146697998,0.377571821212769
342,-9.01811594202899,-6.31602764129639,0.899968981742859,-5.97463768115942,-5.43375492095947,0.725760579109192
343,-4.40748031496063,-6.28990745544434,0.71397078037262,-0.940944881889764,-5.42667007446289,0.41156804561615
344,-3.66666666666667,-6.25030946731567,1.90846467018127,-1.47619047619048,-5.37952566146851,0.828906834125519
345,-6.91666666666667,-6.23255634307861,0.67969012260437,-6.18262411347518,-5.3614821434021,0.558889269828796
346,0.0682819383259916,-6.17763137817383,0.781482458114624,7.2874449339207,-5.28108072280884,0.509684383869171
347,-2.75,-6.12654447555542,1.18238353729248,-10.25,-5.2711935043335,0.833603739738464
348,-2.09868421052632,-6.0695743560791,0.657609701156616,-0.111842105263158,-5.17668342590332,0.512132167816162
349,2.00877192982456,-6.0075740814209,0.602340519428253,-1.67543859649123,-5.16155862808228,0.532620966434479
350,-3.2,-5.97016191482544,0.603282392024994,-0.58,-5.13593101501465,0.425245374441147
351,2.24025974025974,-5.91423082351685,0.493111461400986,-3.48809523809524,-5.14339208602905,0.48257964849472
352,-2.42328042328042,-5.91556167602539,1.23725485801697,-4.08730158730159,-5.12379837036133,1.08287906646729
353,-1.09415584415584,-5.89092588424683,0.397109150886536,-0.812770562770563,-5.12018203735352,0.354823887348175
354,-7.24328859060403,-5.89654541015625,0.492364525794983,-3.3489932885906,-5.1113805770874,0.356254667043686
355,4.10306406685237,-5.84252500534058,0.739993870258331,3.82103064066852,-5.01757383346558,0.416381627321243
356,0.712643678160919,-5.7694411277771,0.665744662284851,9.8735632183908,-4.85841655731201,0.595998525619507
357,-5.25,-5.76044178009033,0.645238876342773,-6.5,-4.88840341567993,0.463247299194336
358,-2,-5.68235492706299,1.70257377624512,5.72727272727273,-4.865882396698,1.23376047611237
359,-7.75,-5.70865821838379,0.87347412109375,-5.25,-4.87233066558838,0.611918151378632
360,-11.0227272727273,-5.72598552703857,0.515899419784546,-0.295454545454545,-4.87770366668701,0.467768788337708
361,-0.232142857142857,-5.62753343582153,0.88582181930542,-6.60714285714286,-4.90954971313477,0.475098133087158
362,-5.15882352941176,-5.58525896072388,0.739836394786835,3.90882352941177,-4.79015731811523,0.447483152151108
363,-1.15909090909091,-5.55556154251099,0.683617770671844,5.20454545454546,-4.65591526031494,0.404240667819977
364,3.61410256410256,-5.46830081939697,1.17768728733063,-7.6025641025641,-4.67426538467407,0.838663220405579
365,-1.54220779220779,-5.42037868499756,0.627066195011139,0.529220779220779,-4.68428230285645,0.453417927026749
366,-9,-5.44537878036499,0.884217083454132,-4,-4.68428230285645,0.606170892715454
367,-2.75,-5.37871217727661,1.03154921531677,-6.5,-4.6426157951355,0.745201051235199
368,0.338607594936709,-5.32496356964111,0.827978551387787,7.27215189873418,-4.56097650527954,0.457604497671127
369,2.16292134831461,-5.29040956497192,0.842364192008972,11.1011235955056,-4.42327165603638,0.487504631280899
370,3.49844720496894,-5.20708703994751,0.840030252933502,0.748447204968944,-4.34994888305664,0.436137050390244
371,1.07960893854749,-5.15655660629272,0.780974507331848,1.55307262569832,-4.2629280090332,0.506499648094177
372,-3.14779874213836,-5.06963777542114,0.79481166601181,-2.87735849056604,-4.228111743927,0.387139022350311
373,-2.75,-5.02788162231445,1.09572231769562,-6.5,-4.2414698600769,0.678597688674927
374,4.49344978165939,-4.91083240509033,0.879324376583099,-6.5,-4.21665096282959,0.50748747587204
375,-2.2247191011236,-4.90377521514893,0.967949569225311,-12.7106741573034,-4.3193883895874,0.664415657520294
376,7.52133105802048,-4.78345155715942,7.6230845451355,-6.43515358361775,-4.35830402374268,4.39885187149048
377,0.698156682027649,-4.73591804504395,0.923301458358765,7.30184331797235,-4.22492790222168,0.391921997070312
378,-2.75,-4.71091794967651,1.01934146881104,-4,-4.19992780685425,0.711229503154755
379,-0.25,-4.64014387130737,1.28135299682617,-1.5,-4.1240062713623,0.988287925720215
380,-6.5,-4.59014415740967,1.12485063076019,-4,-4.05733966827393,0.876410722732544
381,-7.97754491017964,-4.63981914520264,3.77632999420166,-5.63023952095808,-4.05254983901978,3.782222032547
382,1.22485207100592,-4.66251373291016,0.757741630077362,6.78994082840237,-3.93975710868835,0.609372198581696
383,-3.53260869565217,-4.6593976020813,0.900523841381073,-3.54565217391304,-3.90339469909668,0.542619645595551
384,-6.04268292682927,-4.66567087173462,0.90691751241684,-0.102439024390244,-3.90834188461304,0.527408301830292
385,-1.13551401869159,-4.6771125793457,0.750560104846954,-6.49766355140187,-3.9394633769989,0.488984346389771
386,-4.51315789473684,-4.63839626312256,0.645602464675903,-12.4473684210526,-3.93994545936584,0.503631174564362
387,-1.5,-4.58006286621094,0.832466304302216,-7.75,-3.89827871322632,0.734642803668976
388,0.842592592592592,-4.56475973129272,0.781633675098419,-1.83539094650206,-3.838947057724,0.665549755096436
389,-5.47368421052632,-4.61392974853516,0.772873938083649,-4.35734072022161,-3.84821462631226,0.695275962352753
390,1.1,-4.52272176742554,0.749148666858673,-1.29024390243902,-3.77764558792114,0.47651532292366
391,-1.94736842105263,-4.45798254013062,0.863701939582825,6.44736842105263,-3.68550705909729,0.479784667491913
392,-0.15606936416185,-4.41708087921143,0.52544641494751,2.55635838150289,-3.63216829299927,0.769306898117065
393,-2.75,-4.42708110809326,1.18907952308655,-7.75,-3.65906739234924,0.911704540252686
394,-3.36413043478261,-4.42029762268066,0.839957416057587,0.875,-3.58437752723694,0.653418123722076
395,-0.375,-4.43901538848877,0.782599985599518,1.97916666666667,-3.58048248291016,0.445023357868195
396,-4,-4.40943336486816,1.23008871078491,-4,-3.59317660331726,0.831168949604034
397,-8.04057591623037,-4.42803764343262,2.35221815109253,-2.80628272251309,-3.56855177879333,1.57753705978394
398,-13,-4.47137069702148,0.840511977672577,3.04289940828402,-3.48826575279236,0.427481353282928
399,-1.74532710280374,-4.41709804534912,0.703155755996704,6.78504672897196,-3.3378381729126,0.600133717060089
400,8.71270718232044,-4.29110860824585,0.687986254692078,1.95994475138122,-3.3305971622467,0.591560661792755
401,-0.25,-4.30317831039429,1.36626827716827,-2.75,-3.33173274993896,0.726920247077942
402,0.146103896103896,-4.25197124481201,0.959756016731262,-4.60064935064935,-3.3170371055603,0.494976997375488
403,0.221461187214611,-4.15488958358765,0.917785823345184,-2.91324200913242,-3.28322100639343,0.601906478404999
404,6.73170731707317,-4.0941743850708,0.889727056026459,-0.844512195121951,-3.27454996109009,0.606544196605682
405,2.26938775510204,-3.99940276145935,0.843184947967529,2.90510204081633,-3.15622305870056,0.56738293170929
406,-1.8489010989011,-3.91839528083801,3.99717783927917,5.29945054945055,-3.06922698020935,3.31120944023132
407,-2.84177215189873,-3.89422726631165,0.877473771572113,-3.62341772151899,-3.03930830955505,0.66157466173172
408,-1.125,-3.89521646499634,0.963733911514282,0.204545454545454,-3.05743050575256,0.538423657417297
409,4.62658227848101,-3.82491588592529,3.72562456130981,2.03164556962025,-2.93997240066528,3.56670355796814
410,-2.72815533980583,-3.74977016448975,0.567277073860168,-3.33252427184466,-2.89385581016541,0.543897032737732
411,-3.76724137931035,-3.74343585968018,0.625807166099548,0.850574712643679,-2.84695315361023,0.443916469812393
412,2.16062176165803,-3.69403147697449,0.631051361560822,-6.66580310880829,-2.81472539901733,0.420536607503891
413,7.71052631578947,-3.6270215511322,4.29227924346924,2.97368421052632,-2.76043081283569,4.05324077606201
414,2.06481481481481,-3.57574462890625,0.80153501033783,1.87037037037037,-2.75289297103882,0.465385258197784
415,4.31219512195122,-3.4843738079071,0.833388388156891,1.06219512195122,-2.71176791191101,0.563401997089386
416,-5.18181818181818,-3.44969367980957,0.94805896282196,-0.363636363636363,-2.66524219512939,0.749122083187103
417,-7.32014388489209,-3.46449065208435,0.576951026916504,11.3165467625899,-2.58635330200195,0.427725821733475
418,1.05454545454545,-3.41660690307617,2.85075354576111,-1.90454545454545,-2.56677412986755,2.82522797584534
419,1.48387096774194,-3.40832614898682,3.16216349601746,-1.19838709677419,-2.61860513687134,1.58098864555359
420,-6.5,-3.42899990081787,1.00945568084717,-4,-2.65660715103149,0.809126615524292
421,-6.47058823529412,-3.44296097755432,1.23691344261169,2.31372549019608,-2.59214019775391,1.05312347412109
422,-2.20112781954887,-3.43093800544739,0.796426117420197,-8.40037593984962,-2.67132496833801,0.742188334465027
423,4.65126050420168,-3.42307782173157,0.79550701379776,11.1575630252101,-2.61502766609192,0.438564777374268
424,6.25955414012739,-3.33889651298523,0.735090494155884,5.65923566878981,-2.56141710281372,0.58708256483078
425,2.82458563535912,-3.32338547706604,0.934110164642334,1.15745856353591,-2.53315424919128,0.491767346858978
426,-1.50519287833828,-3.27047657966614,0.813405156135559,7.44955489614243,-2.42714858055115,0.615035831928253
427,-1.51608187134503,-3.17225027084351,0.577751815319061,-3.28654970760234,-2.38648509979248,0.506914854049683
428,-0.346456692913386,-3.11967945098877,0.863732635974884,1.65748031496063,-2.3146984577179,0.689372539520264
429,-5.44202898550725,-3.11161112785339,1.42553651332855,-0.239130434782608,-2.31721234321594,0.868907690048218
430,-7.72142857142857,-3.08748626708984,0.994696199893951,-2.1,-2.33004760742188,1.04253137111664
431,1.22222222222222,-3.02555918693542,1.01947999000549,11.9861111111111,-2.22350907325745,0.51808500289917
432,3.02397260273973,-2.9137327671051,6.95949459075928,-3.48630136986301,-2.25556063652039,7.25724601745605
433,4.06024096385542,-2.8673574924469,0.61515611410141,-1.34036144578313,-2.25147652626038,0.585385739803314
434,-3.40217391304348,-2.83703851699829,0.615047574043274,-1.90217391304348,-2.23301482200623,0.553203225135803
435,5.06733167082294,-2.7405993938446,1.0330216884613,-1.99002493765586,-2.23012232780457,0.781207680702209
436,6.36386138613861,-2.63794159889221,0.583020627498627,4.8490099009901,-2.14513731002808,0.456671297550201
437,8.6728045325779,-2.56822967529297,0.755688905715942,2.4128895184136,-2.08673739433289,0.498206436634064
438,-0.962918660287081,-2.52495241165161,1.19197428226471,-2.42344497607655,-2.06971192359924,1.18521988391876
439,13.7681818181818,-2.38861155509949,0.766839265823364,1.03181818181818,-2.07659959793091,0.503199934959412
440,8.12380952380952,-2.3829550743103,1.3292840719223,-10.2873015873016,-2.14971709251404,0.945180237293243
441,-4,-2.33295512199402,1.11066055297852,-2.75,-2.11638379096985,0.761047184467316
442,3.29186046511628,-2.29500937461853,1.07509660720825,-3.24767441860465,-2.12779998779297,0.665462553501129
443,4.36585365853658,-2.20590376853943,0.845725536346436,-1.60975609756098,-2.08686470985413,0.496221542358398
444,5.03994082840237,-2.12941455841064,0.806422352790833,1.76331360946746,-2.03265380859375,0.586036562919617
445,-8.47950819672131,-2.10666799545288,1.42648041248322,5.45901639344262,-1.97148883342743,1.0083155632019
446,-5.25,-2.07919478416443,1.38566935062408,-2.75,-1.9131555557251,1.10413718223572
447,0.101063829787234,-2.06018757820129,0.784346044063568,-10.8989361702128,-1.93414855003357,0.509817898273468
448,-6.25,-2.05018758773804,0.788399577140808,-15.25,-1.96748185157776,0.495863080024719
449,-9.25,-2.0347843170166,0.939404726028442,-0.59748427672956,-1.89687597751617,0.540149867534637
450,3.91666666666667,-1.90367329120636,0.752803862094879,1.84389671361502,-1.81168067455292,0.506123661994934
451,-1.84139784946237,-1.91612589359283,0.742348551750183,0.338709677419354,-1.74616765975952,0.454814195632935
452,-4,-1.93279254436493,1.22434318065643,-6.5,-1.77116763591766,0.777801692485809
453,0.875,-1.90057492256165,1.08090937137604,3.85869565217391,-1.7338057756424,0.671486794948578
454,-1.34574468085106,-1.8867427110672,1.09924733638763,0.404255319148936,-1.70999312400818,0.658808350563049
455,-1.5,-1.88975059986115,1.31400465965271,3.5,-1.64078211784363,0.958696722984314
456,5.96052631578947,-1.90465366840363,0.741976618766785,0.907894736842105,-1.61681067943573,0.664533317089081
457,4.16812227074236,-1.84390342235565,1.17035448551178,-5.35262008733624,-1.62982833385468,0.772356808185577
458,1.3452380952381,-1.76660180091858,3.5043933391571,1.17857142857143,-1.55363786220551,1.88121402263641
459,-7.07100591715976,-1.79278945922852,0.931135654449463,1.57100591715976,-1.59183120727539,0.701772630214691
460,-2.08994708994709,-1.75505590438843,1.00532102584839,-2.52116402116402,-1.55697226524353,0.716617405414581
461,5.3731884057971,-1.63198852539062,1.66613006591797,11.1884057971014,-1.43066608905792,0.934456825256348
462,-1.5,-1.63427126407623,1.20126926898956,-1.5,-1.35494136810303,0.875050187110901
463,-3.45760233918129,-1.64729082584381,0.999279975891113,4.59356725146199,-1.32572400569916,0.708433330059052
464,-8.09806629834254,-1.75092279911041,1.17580902576447,-0.864640883977901,-1.29543304443359,0.72847443819046
465,-4,-1.72975993156433,1.66421377658844,-0.25,-1.24748742580414,1.15969932079315
466,-5.25,-1.72274005413055,1.52014100551605,-2.75,-1.21967625617981,1.07018113136292
467,-6.5,-1.73261964321136,1.42166686058044,-5.25,-1.22304975986481,0.982712805271149
468,-12.7412718204489,-1.70322036743164,1.15662491321564,-0.474438902743142,-1.18377077579498,0.625771760940552
469,-1.5,-1.69095420837402,1.32263565063477,1,-1.14669847488403,0.896895051002502
470,0.159638554216867,-1.70072329044342,0.688357353210449,3.94277108433735,-1.08391332626343,0.77933257818222
471,-1.5,-1.7289103269577,1.513218998909,1,-1.05066776275635,1.11100912094116
472,6.99543378995434,-1.62917602062225,0.969790637493134,-3.27853881278539,-1.05553078651428,0.748052597045898
473,-1.75602409638554,-1.64091575145721,0.903403878211975,0.153614457831326,-1.04749345779419,0.804317891597748
474,2.31395348837209,-1.59882271289825,2.15473937988281,-8.21511627906977,-1.05059432983398,2.59291791915894
475,-4.37176165803109,-1.6013011932373,0.627107560634613,1.37694300518135,-1.03141462802887,0.696560502052307
476,1.37647058823529,-1.55783760547638,1.33443176746368,3.32647058823529,-0.991475224494934,0.917708694934845
477,3.30917159763314,-1.48487639427185,0.812520861625671,8.96301775147929,-0.883894860744476,0.797351658344269
478,-1.5,-1.47125422954559,1.41665661334991,-1.5,-0.863183677196503,1.11077857017517
479,1.18307086614173,-1.42677128314972,0.903594851493835,8.46062992125984,-0.819261789321899,0.78680956363678
480,1.69875776397516,-1.33104681968689,0.817830264568329,5.07608695652174,-0.726307094097137,0.761640071868896
481,-4,-1.33611345291138,1.7326432466507,-2.75,-0.797678530216217,1.51508796215057
482,0.650709219858156,-1.27177536487579,1.30862700939178,3.27482269503546,-0.699179708957672,0.964993357658386
483,16.2681818181818,-1.08611106872559,1.00081348419189,-4.20909090909091,-0.717333912849426,0.601442515850067
484,-6.71857142857143,-1.07923495769501,1.22936189174652,3.45571428571429,-0.634295880794525,0.642081558704376
485,1.93181818181818,-1.0313560962677,5.09280729293823,4.04090909090909,-0.572356462478638,3.19177007675171
486,-5.58910891089109,-1.04195022583008,0.883625090122223,0.349009900990099,-0.568363010883331,0.67429119348526
487,-6.5,-1.09736680984497,1.15431714057922,1,-0.532113015651703,0.834968328475952
488,-7.57608695652174,-1.10485255718231,1.4243483543396,-4.53478260869565,-0.560936272144318,0.899604856967926
489,-2.20708154506438,-1.10744667053223,1.47975730895996,-4.17274678111588,-0.537735164165497,0.776677668094635
490,-10.7016728624535,-1.13547694683075,0.94388610124588,-3.83921933085502,-0.563406646251678,0.448684930801392
491,-2.75,-1.13814210891724,1.88170123100281,-2.75,-0.591385722160339,1.33223342895508
492,8.56578947368421,-1.02091598510742,1.05403029918671,9.6140350877193,-0.487461239099503,0.831480860710144
493,-0.973087818696885,-0.998019993305206,1.0300178527832,-0.193342776203966,-0.482477217912674,0.770835340023041
494,-13.5227272727273,-1.06372714042664,1.07725942134857,-8.47727272727273,-0.529151082038879,0.647844910621643
495,8.61350148367952,-0.960192680358887,0.931156277656555,7.18545994065282,-0.440030515193939,0.7208491563797
496,-4.64512195121951,-0.991615295410156,0.685134947299957,-4.58170731707317,-0.519158244132996,0.623206675052643
497,1,-0.966615319252014,1.48908960819244,-0.25,-0.45249155163765,1.05301201343536
498,9.34756097560976,-0.890307009220123,1.12501215934753,8.18658536585366,-0.397168725728989,0.660422384738922
499,1.64429530201342,-0.892736911773682,0.895518898963928,-7.66442953020134,-0.43709534406662,0.741980195045471
500,-0.868421052631579,-0.877192974090576,1.26405489444733,2.10526315789474,-0.419193595647812,0.756611824035645
501,-1.35082872928177,-0.901133596897125,0.971865236759186,3.25966850828729,-0.374208509922028,0.924044847488403
502,13.1551724137931,-0.797277212142944,1.77978181838989,11.2126436781609,-0.272208839654922,1.6634624004364
503,2.76176470588235,-0.771571040153503,1.31604337692261,-1.22647058823529,-0.274966835975647,0.924304783344269
504,3.35483870967742,-0.700916826725006,2.15715765953064,1.77649769585253,-0.240796893835068,0.934690475463867
505,4.07857142857143,-0.701080143451691,1.73276019096375,10.2142857142857,-0.198175176978111,1.7134131193161
506,-1.82861635220126,-0.718021869659424,1.34326159954071,3.90251572327044,-0.237982153892517,0.907625138759613
507,-4.35087719298246,-0.712027668952942,1.01379156112671,-8.8874269005848,-0.253898352384567,0.656520009040833
508,-4,-0.725361049175262,1.45226263999939,2.25,-0.277080148458481,1.12318730354309
509,-1.52083333333333,-0.683833241462708,1.20210897922516,-4.02083333333333,-0.26888570189476,0.746231377124786
510,1,-0.603681743144989,1.73970377445221,1,-0.260249316692352,1.3367965221405
511,0.57967032967033,-0.598269641399384,7.06456470489502,2.04945054945055,-0.202538713812828,6.13037014007568
512,-9.14968152866242,-0.624875366687775,1.00284826755524,6.73089171974522,-0.183724910020828,0.880070269107819
513,-4.18387096774194,-0.645040571689606,5.82571983337402,-0.933870967741935,-0.224647670984268,1.99457836151123
514,-2.75,-0.687467932701111,1.48436832427979,2.25,-0.158963933587074,1.11938881874084
515,-0.87378640776699,-0.683011829853058,1.29517912864685,8.83495145631068,-0.103592395782471,0.784725487232208
516,7.67099567099567,-0.571871817111969,1.05084204673767,5.56385281385281,-0.0398333743214607,0.881590306758881
517,3.5,-0.530205130577087,1.42338991165161,-1.5,-0.00650006625801325,1.04540848731995
518,3.5,-0.509129166603088,1.41013741493225,-4,-0.0816477462649345,1.1359246969223
519,-2.75,-0.54188197851181,1.7625287771225,-0.25,-0.157321900129318,1.31834673881531
520,11.6634199134199,-0.487448781728745,1.05137538909912,9.80735930735931,-0.096929170191288,0.895662367343903
521,8.75840336134454,-0.43625682592392,1.31925022602081,14.6512605042017,-0.00960792507976294,0.858652472496033
522,-8.54775280898876,-0.472256481647491,3.30188465118408,-10.5365168539326,-0.0606689974665642,2.6229989528656
523,-9.57333333333333,-0.517745435237885,0.986562550067902,-3.27666666666667,-0.0391800962388515,1.0189950466156
524,3.35236220472441,-0.525352656841278,1.68698227405548,-2.08267716535433,-0.00973129272460938,1.01118338108063
525,-4,-0.537187874317169,1.89693784713745,-1.5,0.0650065392255783,1.46277022361755
526,4.51388888888889,-0.557237505912781,1.32613134384155,11.3703703703704,0.183710038661957,0.938123762607574
527,-9.69642857142857,-0.626534759998322,1.56456875801086,-6.53571428571429,0.0914596691727638,1.01315820217133
528,0.405844155844156,-0.605495870113373,1.39150524139404,1.16558441558442,0.125896900892258,1.04051208496094
529,1,-0.597162544727325,1.61575996875763,-4,0.109230235219002,0.945843398571014
530,-0.967391304347826,-0.560278475284576,0.864838600158691,-4.48913043478261,0.105969361960888,0.912204921245575
531,4.09405940594059,-0.479801088571548,1.20265305042267,7.2029702970297,0.191524118185043,0.953745543956757
532,0.814814814814814,-0.482534646987915,1.29991436004639,5.34259259259259,0.181875124573708,0.987445414066315
533,5.13294797687861,-0.424764275550842,0.89374566078186,-4.54046242774566,0.175243094563484,0.880479514598846
534,-3.06164383561644,-0.404890686273575,7.91443967819214,-2.98630136986301,0.15601734817028,7.71429061889648
535,1.51331360946746,-0.387231796979904,1.71182119846344,8.05177514792899,0.253013610839844,1.07825493812561
536,8.01635514018692,-0.303701788187027,1.28761780261993,2.09345794392523,0.349952399730682,0.940415561199188
537,-7.7752808988764,-0.345536977052689,1.12498664855957,7.85112359550562,0.453959852457047,0.852382779121399
538,2.02439024390244,-0.33765834569931,1.59392905235291,6.99024390243902,0.5127974152565,0.90203982591629
539,1.18265306122449,-0.293282717466354,1.09514760971069,7.87959183673469,0.594377040863037,0.817755997180939
540,4.13793103448276,-0.273029893636703,1.50624930858612,2.06896551724138,0.616771757602692,0.965892791748047
541,6.70886075949367,-0.215321704745293,1.38760673999786,-1.29430379746835,0.565160632133484,0.981678187847137
542,-1.7707756232687,-0.226086422801018,1.29553413391113,2.75207756232687,0.566465377807617,0.978813111782074
543,-0.55,-0.211419716477394,1.56736159324646,-11.85,0.539132118225098,0.9309903383255
544,4.15467625899281,-0.161294341087341,1.446657538414,1.84892086330935,0.545624971389771,0.926241636276245
545,4.76336898395722,-0.127038568258286,1.54721295833588,5.45053475935829,0.568767368793488,0.83782696723938
546,-2.07971014492754,-0.114236630499363,1.63225162029266,1.50724637681159,0.605482280254364,1.46847999095917
547,-1.53064516129032,-0.0708370730280876,1.41976487636566,-13,0.537524223327637,0.848315954208374
548,10.0634920634921,0.0829195380210876,2.24714016914368,7.55555555555556,0.567608535289764,1.56082117557526
549,5.21846846846847,0.129344835877419,1.22379302978516,4.64864864864865,0.553365886211395,0.861927151679993
550,3.5,0.094593457877636,2.29414844512939,-2.75,0.521966278553009,1.65823018550873
551,0.902694610778443,0.102278083562851,6.61997985839844,-7.97754491017964,0.487116038799286,7.30671119689941
552,7.73717948717949,0.152885273098946,2.89221167564392,8.0448717948718,0.571419537067413,1.66206920146942
553,8.22196261682243,0.206221967935562,1.41159451007843,6.22429906542056,0.632336378097534,0.995377063751221
554,-2.08282208588957,0.147458449006081,1.60930120944977,2.8420245398773,0.656913220882416,0.950114250183105
555,-10.5965909090909,0.0616852380335331,1.73982679843903,-5.5,0.60087925195694,0.992639601230621
556,0.600000000000001,0.0780112743377686,1.51449477672577,1.57222222222222,0.576031088829041,1.03479647636414
557,-8.79651162790698,0.0383129939436913,1.81367218494415,-3.12596899224806,0.579347372055054,1.17545855045319
558,8.10526315789474,0.0998480767011642,5.37097501754761,7.38157894736842,0.627194344997406,4.66108560562134
559,0.161764705882353,0.0700825974345207,1.44197869300842,2.22941176470588,0.628512740135193,1.11545121669769
560,2.1875,0.102853626012802,1.76822757720947,9.8125,0.716146171092987,1.42196929454803
561,-5.10471204188482,0.0939371511340141,5.07376670837402,-8.95157068062827,0.650798678398132,5.00931406021118
562,2.45391705069124,0.0958924517035484,1.44995248317719,-8.43433179723502,0.639008462429047,0.906892418861389
563,9.4344262295082,0.107385113835335,2.24103283882141,6.19262295081967,0.66046804189682,1.59111952781677
564,6.97257383966245,0.140103548765182,9.43525123596191,4.42616033755274,0.677506685256958,6.2404408454895
565,1.61699164345404,0.122135527431965,2.05613946914673,7.04874651810585,0.717417120933533,1.41404235363007
566,6.72790697674419,0.201533704996109,2.01329755783081,6.03604651162791,0.760081648826599,1.14549934864044
567,-3.03550295857988,0.230097994208336,7.00798559188843,2.28402366863905,0.699864745140076,6.04130363464355
568,14.0121951219512,0.316482335329056,1.94662380218506,5.13414634146342,0.746789395809174,0.982917428016663
569,1.71518987341772,0.318024456501007,5.38437843322754,5.93037974683544,0.794314444065094,6.62216377258301
570,6.36092150170649,0.403763920068741,9.27727794647217,14.3421501706485,0.916595458984375,6.2479510307312
571,1.08333333333333,0.454123377799988,1.71921181678772,6.4748427672956,0.944336235523224,0.93796706199646
572,-5.12359550561798,0.434640258550644,2.19945979118347,3.0252808988764,1.02050733566284,1.51742398738861
573,3.93253968253968,0.429848790168762,1.84863197803497,-9.57671957671958,0.882278740406036,1.33982574939728
574,-7.70933014354067,0.336722880601883,2.37547397613525,6.55143540669856,0.888226747512817,2.37433671951294
575,5.07367149758454,0.351716816425323,1.92165768146515,-0.873188405797102,0.874689102172852,1.10333323478699
576,-0.582599118942731,0.357867419719696,2.14380669593811,4.87004405286344,0.857492387294769,1.20695722103119
577,-2.75,0.3496413230896,1.82742738723755,-2.75,0.861069321632385,1.30708467960358
578,1.98850574712644,0.365207731723785,1.33166182041168,2.3132183908046,0.865440905094147,1.13488149642944
579,1.15909090909091,0.409215152263641,2.23886847496033,5.59090909090909,0.904307842254639,1.75820910930634
580,-2.72346368715084,0.442534893751144,1.62647438049316,4.43016759776536,0.947842299938202,1.37855052947998
581,1.76623376623377,0.446161597967148,1.7819447517395,1.76623376623377,0.879709780216217,1.30956065654755
582,-3.22058823529412,0.404531210660934,2.34654641151428,1.29901960784314,0.911611914634705,1.73060166835785
583,-2.05,0.363796323537827,2.0654354095459,-0.84,0.914947688579559,1.15654170513153
584,11.25,0.461477518081665,1.50599896907806,2.10093896713615,0.941635131835938,0.963544964790344
585,-1.5,0.417695283889771,2.4323034286499,3.5,0.978235244750977,1.57033216953278
586,5.47368421052632,0.411760777235031,2.07457947731018,5.07236842105263,0.9797243475914,1.18476819992065
587,3.79545454545454,0.379245102405548,5.06160402297974,7.88636363636364,1.01621425151825,4.05050849914551
588,-2.10288065843621,0.371645301580429,2.23170256614685,13.8713991769547,1.12484633922577,1.56993019580841
589,3.26127819548872,0.301599323749542,1.6070351600647,-9.58834586466165,1.05404543876648,0.829585015773773
590,-5.40291262135922,0.21142116189003,1.46870851516724,-1.58980582524272,1.11202871799469,0.69887387752533
591,9.61428571428571,0.30218306183815,4.20298528671265,6.91904761904762,1.17648899555206,2.76840949058533
592,-0.301775147928994,0.278225481510162,1.71307277679443,2.47485207100592,1.21463918685913,1.22664606571198
593,-3.11585365853658,0.228347420692444,1.68431973457336,8.28658536585366,1.28061473369598,1.15916967391968
594,10.6654929577465,0.265851110219955,1.86530423164368,2.69014084507042,1.28679358959198,1.15428459644318
595,2.125,0.336547821760178,1.76366877555847,4.32954545454545,1.27926385402679,1.07137537002563
596,5.97340425531915,0.411370515823364,1.70972740650177,0.0159574468085109,1.29770350456238,1.09110009670258
597,-7.8804347826087,0.358160525560379,1.25131785869598,-4.54891304347826,1.34003698825836,1.07598078250885
598,-4.55263157894737,0.369476318359375,2.15792655944824,0.394736842105263,1.44433522224426,1.44520795345306
599,2.25,0.446142971515656,2.3492648601532,-1.5,1.43831861019135,1.83505547046661
600,-0.835443037974683,0.414462268352509,1.97023665904999,10.1107594936709,1.49343085289001,1.2153685092926
601,-2.75,0.408404916524887,1.9607127904892,1,1.49783968925476,1.33487975597382
602,-9,0.375071585178375,1.93848371505737,-0.25,1.539506316185,1.44729006290436
603,-5.49347826086957,0.332615077495575,2.0648946762085,-0.752173913043479,1.50876724720001,1.49619555473328
604,4.01948051948052,0.368383258581161,1.39767098426819,3.76623376623377,1.5311803817749,1.24716651439667
605,2.37612612612613,0.394224107265472,1.52652049064636,1.57882882882883,1.51837265491486,1.07622349262238
606,9.90354330708661,0.42051088809967,2.28294396400452,8.70866141732284,1.57037758827209,1.49473309516907
607,7.67352941176471,0.443880200386047,1.84402465820312,6.06470588235294,1.64649307727814,1.33717131614685
608,2.25,0.449912011623383,2.25345540046692,2.25,1.65363585948944,1.55482041835785
609,-1.40760869565217,0.487667948007584,2.09921145439148,-6.125,1.6023291349411,1.60918056964874
610,-6.5,0.458267569541931,2.21723055839539,-11.5,1.54247033596039,1.25347793102264
611,4.51,0.452512979507446,2.05961227416992,2.645,1.48551416397095,1.25074231624603
612,-1.02486187845304,0.455680578947067,1.79567718505859,-8.87292817679558,1.4363614320755,1.19859564304352
613,0.405172413793103,0.481432437896729,2.16490769386292,-1.41954022988506,1.39627408981323,1.26895272731781
614,-2.58201058201058,0.518206179141998,2.18161153793335,3.78174603174603,1.42724990844727,1.22674119472504
615,6.17716535433071,0.586053907871246,1.79448902606964,3.93307086614173,1.45513701438904,1.25788152217865
616,0.743975903614458,0.626013815402985,1.55986511707306,2.74397590361446,1.49176347255707,1.25631880760193
617,5.13,0.703547120094299,1.81974041461945,-2.78857142857143,1.50817322731018,1.28551876544952
618,0.133419689119171,0.78937840461731,1.20859217643738,7.13730569948187,1.55891799926758,1.07755351066589
619,0.236585365853658,0.800955653190613,1.7989559173584,12.9987804878049,1.63890993595123,1.182746052742
620,1,0.806558012962341,2.03314065933228,1,1.61929142475128,1.28116083145142
621,2.25,0.831558048725128,2.00551152229309,-1.5,1.60262477397919,1.43167364597321
622,-1.35471204188482,0.775890409946442,4.93307638168335,-0.104712041884817,1.62378358840942,3.99923324584961
623,2.15573770491803,0.801968812942505,2.60279393196106,5.43852459016393,1.65901637077332,1.82628977298737
624,4.40909090909091,0.815936326980591,2.85271811485291,4.40909090909091,1.74317765235901,2.74969696998596
625,6.9963768115942,0.891724050045013,2.23288226127625,1.52536231884058,1.74416708946228,1.66478610038757
626,2.07792207792208,0.896400332450867,2.25639724731445,-9.01298701298701,1.66190409660339,1.23915255069733
627,1.78837209302326,0.886261701583862,2.36838626861572,6.25,1.64381730556488,1.30450880527496
628,11.4454545454545,0.972564697265625,6.11579608917236,11.9363636363636,1.73339319229126,5.39159536361694
629,-0.747663551401869,0.959693074226379,1.83189857006073,11.9719626168224,1.75680220127106,1.34041440486908
630,-3.35752688172043,0.925984501838684,1.94468748569489,-7.91129032258064,1.67021954059601,1.06994652748108
631,4.21875,0.980776190757751,2.10908269882202,-4.40625,1.65917789936066,1.39229929447174
632,1,0.983104765415192,2.43066811561584,1,1.64401233196259,1.68362009525299
633,-0.25,0.872983574867249,2.46488904953003,1,1.67873966693878,1.81963193416595
634,3.86842105263158,0.943563520908356,2.27334594726562,7.52631578947368,1.70587694644928,1.83406043052673
635,-5.79545454545455,0.892048358917236,0.986853420734406,1.43181818181818,1.68848311901093,1.38120937347412
636,5.58361774744027,0.966533184051514,8.44902515411377,10.7235494880546,1.75764667987823,6.78903293609619
637,-0.25,1.00819981098175,2.59348201751709,-2.75,1.73264670372009,2.00108361244202
638,5.34042553191489,1.09431004524231,2.22588276863098,4.36702127659574,1.7919921875,1.54660964012146
639,-6.5,1.06569063663483,2.48220276832581,2.25,1.8348103761673,2.07686161994934
640,-3.84883720930232,1.11137616634369,2.7941689491272,5.99418604651163,1.90036642551422,2.77629733085632
641,-1.69358974358974,1.11841893196106,4.64246129989624,4.82692307692308,1.95087933540344,3.32723259925842
642,3.90070921985816,1.08731830120087,2.38307094573975,3.26595744680851,1.90855872631073,1.79843044281006
643,2.17455621301775,1.1083025932312,7.11227035522461,6.66568047337278,1.95428550243378,5.81289052963257
644,-0.25,1.19678747653961,2.5964937210083,1,2.0174674987793,1.71194636821747
645,3.15,1.16036415100098,2.14452052116394,10.2617647058824,2.03797602653503,1.48073637485504
646,-0.490816326530612,1.18805956840515,2.03284502029419,10.0061224489796,2.13522815704346,1.66189813613892
647,4.15909090909091,1.2091201543808,1.91145992279053,15.9772727272727,2.24341011047363,1.88433957099915
648,0.806818181818182,1.1521817445755,2.08733344078064,-2.48863636363636,2.17224192619324,1.19489312171936
649,-9.06578947368421,1.08078122138977,2.00475692749023,9.5,2.28667140007019,1.32168102264404
650,11.5595238095238,1.16363418102264,1.81706416606903,8.1461038961039,2.32694363594055,1.389044880867
651,14.094512195122,1.26660323143005,1.93747353553772,-4.53353658536585,2.27498888969421,1.43190336227417
652,1.34493670886076,1.18786835670471,2.14482545852661,10.5981012658228,2.27089190483093,1.480393409729
653,7.9368029739777,1.22236859798431,2.33144736289978,5.26486988847584,2.31416773796082,1.44832992553711
654,4.82038834951456,1.2321389913559,2.57120728492737,3.83495145631068,2.32789039611816,1.45482683181763
655,-0.84971098265896,1.19928371906281,1.84403395652771,4.57514450867052,2.29029631614685,1.42547678947449
656,12.739417989418,1.2964038848877,2.261638879776,3.69179894179894,2.28889155387878,1.86597013473511
657,1,1.33207654953003,2.79468441009521,3.5,2.37147450447083,2.15599012374878
658,6.76190476190476,1.40382254123688,6.38509893417358,12.2142857142857,2.43790292739868,5.15463829040527
659,6.34239130434783,1.45624399185181,1.40408706665039,2.10326086956522,2.47872996330261,1.36630272865295
660,-1.5,1.43957734107971,2.38408350944519,2.25,2.48706340789795,1.61640131473541
661,-0.25,1.43404614925385,2.15570878982544,-1.5,2.46340036392212,1.55016732215881
662,-4.2,1.46704399585724,4.9184947013855,1.7547619047619,2.43022632598877,3.40286779403687
663,7.96014492753623,1.54800415039062,2.39338159561157,6.1195652173913,2.47724938392639,1.91097366809845
664,4.87087912087912,1.59881007671356,6.67984294891357,6.17032967032967,2.50338506698608,8.516845703125
665,-0.25,1.60296857357025,2.56643176078796,3.5,2.46781849861145,1.93297362327576
666,6.10396039603961,1.59252166748047,2.25681972503662,3.8490099009901,2.45638632774353,1.71162211894989
667,3.68333333333333,1.59374392032623,2.6582772731781,1.28888888888889,2.47497892379761,1.83537745475769
668,2.86363636363636,1.5895015001297,2.6813371181488,-0.852272727272727,2.49596357345581,1.72971105575562
669,2.25,1.62283492088318,2.54928278923035,1,2.50429677963257,1.80714774131775
670,-0.568965517241379,1.54128563404083,1.77433884143829,7.88793103448276,2.49150109291077,1.43981277942657
671,1.44943820224719,1.49255919456482,2.20529723167419,-2.71348314606742,2.37573599815369,1.88236355781555
672,-8.51657458563536,1.49276697635651,2.37670707702637,2.76657458563536,2.46442317962646,1.66005146503448
673,3.97368421052632,1.58308041095734,2.16277718544006,4.67105263157895,2.5174081325531,1.46517479419708
674,11.683147632312,1.63861906528473,2.5455048084259,15.9275766016713,2.63747620582581,1.83070576190948
675,-9.58552631578947,1.6013822555542,2.37576127052307,-7.03947368421053,2.60054636001587,1.58737468719482
676,3.89400921658986,1.59724962711334,2.14153909683228,0.76152073732719,2.52982091903687,1.35898041725159
677,4.5,1.69189262390137,6.07499504089355,9.95454545454546,2.63975596427917,5.85495090484619
678,0.180645161290322,1.69039118289948,1.59915065765381,-7.65645161290323,2.58094239234924,1.42251944541931
679,5.8719512195122,1.72287094593048,2.47819375991821,6.29146341463415,2.6495521068573,1.60689628124237
680,2.58082706766917,1.74652564525604,1.97691738605499,7.69360902255639,2.73077011108398,1.38567900657654
681,-0.390243902439025,1.71663022041321,2.33875036239624,-2.28536585365854,2.66751456260681,1.65794098377228
682,3.15853658536585,1.73225510120392,2.77437329292297,5.40243902439024,2.66791367530823,2.21745753288269
683,-0.25,1.69636881351471,2.39930582046509,2.25,2.71318340301514,1.69845151901245
684,-1.60648148148148,1.70606994628906,2.3631489276886,-4.21296296296296,2.70500564575195,1.61273753643036
685,3.89497041420118,1.72194766998291,2.31770515441895,7.28698224852071,2.69990706443787,1.56191897392273
686,3.00534759358289,1.68854105472565,2.41573905944824,1.37165775401069,2.69509506225586,1.74850702285767
687,13.2606382978723,1.82878053188324,2.72428321838379,7.10638297872341,2.69013023376465,1.63208830356598
688,-9.95,1.74895119667053,2.54155254364014,-6.35,2.60119533538818,1.7513564825058
689,-3.73584905660377,1.71616113185883,2.14131641387939,-11.1289308176101,2.47447156906128,1.32181751728058
690,-0.226027397260274,1.68706798553467,8.84641742706299,6.43835616438356,2.50360083580017,10.5942487716675
691,6.68137254901961,1.68688464164734,2.73889565467834,1.15686274509804,2.51994204521179,2.28241109848022
692,16.3769841269841,1.80786991119385,2.71310186386108,12.3730158730159,2.58408164978027,2.40489888191223
693,2.60650887573965,1.82891321182251,2.39177131652832,-3.19674556213018,2.64177012443542,1.54227602481842
694,2.02777777777778,1.81473386287689,2.15557479858398,-0.425925925925926,2.62660431861877,1.96327102184296
695,5.86135371179039,1.82205367088318,2.94527459144592,2.71397379912664,2.60836052894592,2.10846996307373
696,9.22510822510823,1.89741921424866,2.45841550827026,6.41017316017316,2.64104652404785,1.97095847129822
697,5.61497890295358,1.94505679607391,8.28297328948975,-3.65506329113924,2.70334625244141,8.68787384033203
698,3.72101449275362,1.90277338027954,4.02688789367676,7.93840579710145,2.70589852333069,2.43514752388
699,9.68037974683544,1.93251955509186,6.79381465911865,6.5253164556962,2.71840977668762,6.84027528762817
700,5.53481012658228,1.94608497619629,2.33480739593506,12.3259493670886,2.8189160823822,1.63876819610596
701,8.2797783933518,1.99526572227478,2.12951970100403,10.8614958448753,2.94450974464417,1.74152755737305
702,1.09795321637427,1.95100426673889,2.40704584121704,9.92543859649123,2.95704674720764,1.82079887390137
703,9.68545994065282,1.96076095104218,2.10672211647034,7.26112759643917,2.96395921707153,1.86893081665039
704,1.79955947136564,1.98664343357086,2.35914516448975,-2.80616740088106,2.92630457878113,1.62219083309174
705,5.94014084507042,2.09688830375671,2.19897365570068,5.70305164319249,3.00099158287048,1.05649209022522
706,1,2.09955477714539,2.68269515037537,1,2.9971764087677,1.80880534648895
707,6.50586854460094,2.20157074928284,2.07996964454651,6.30281690140845,3.06003499031067,1.65491282939911
708,4.15269461077844,2.17522025108337,7.09549856185913,7.9565868263473,3.06386852264404,9.54021263122559
709,2.25,2.18914175033569,2.38493466377258,2.25,3.06400585174561,1.66734206676483
710,2.2,2.18922519683838,2.00371956825256,4.95,3.03158926963806,1.69399869441986
711,9.89285714285714,2.28920888900757,2.69336342811584,10.4464285714286,3.16090893745422,2.06998229026794
712,-9.38271604938272,2.21029806137085,2.60137867927551,6.98353909465021,3.26369476318359,1.81629943847656
713,3.50460122699387,2.17076587677002,2.74900054931641,11.1411042944785,3.29668474197388,1.96932744979858
714,-2.82945736434108,2.10541915893555,2.5527126789093,-5.45930232558139,3.23078155517578,2.158047914505
715,10.7368421052632,2.16621804237366,4.83119678497314,9.88157894736842,3.24966716766357,9.09661769866943
716,4.91926345609065,2.15416026115417,2.5265519618988,10.356940509915,3.2784731388092,1.81711077690125
717,-6.26685393258427,2.13261795043945,3.28462171554565,2.37078651685393,3.2790515422821,3.45474481582642
718,4.57647058823529,2.06971311569214,2.38301157951355,-1.35,3.2358238697052,1.64633512496948
719,8.33771929824561,2.11386322975159,2.30341482162476,12.5526315789474,3.27997231483459,1.78615510463715
720,0.357476635514019,2.07384037971497,2.42479014396667,6.27102803738318,3.22616481781006,1.8519115447998
721,5.97701149425287,2.10646486282349,2.58715677261353,5.46551724137931,3.21943593025208,2.5389301776886
722,2.25,2.15562224388123,2.82896327972412,2.25,3.21426725387573,2.2050507068634
723,8.06278538812785,2.18315744400024,2.64428877830505,6.72146118721461,3.32292199134827,1.64525902271271
724,5.40060240963855,2.27055716514587,2.09891676902771,9.36144578313253,3.34165525436401,1.36768746376038
725,-0.421658986175115,2.23392128944397,4.21375799179077,5.47350230414746,3.38396644592285,4.08071947097778
726,-3.91019417475728,2.21173739433289,2.17894625663757,-2.35679611650485,3.33578777313232,1.19124674797058
727,-0.371019108280255,2.2275972366333,3.39149737358093,11.8519108280255,3.43313360214233,1.45819902420044
728,4.21287128712871,2.24242639541626,2.2520534992218,8.75990099009901,3.47611165046692,1.87404990196228
729,5.51608187134503,2.2714729309082,2.51727294921875,1.27777777777778,3.44735765457153,1.59180128574371
730,2.25,2.3046293258667,2.76540565490723,-2.75,3.39948964118958,2.24160313606262
731,2.25,2.30785441398621,2.66713809967041,-0.25,3.38604807853699,1.83291113376617
732,-8.42224880382775,2.27317667007446,2.65350413322449,-2.66985645933014,3.35958886146545,2.67198133468628
733,2.25,2.30184316635132,2.65909194946289,-0.25,3.36352181434631,2.02392673492432
734,13.890897755611,2.31944942474365,2.52702236175537,14.3572319201995,3.44523119926453,2.27333521842957
735,1,2.33611607551575,2.6829993724823,-1.5,3.41189765930176,2.09451746940613
736,7.36686390532544,2.34873723983765,2.02891540527344,5.10502958579882,3.41211533546448,2.474769115448
737,2.69409937888199,2.34139466285706,2.51882576942444,-8.68633540372671,3.30163073539734,1.64227116107941
738,5.70833333333333,2.39346933364868,2.680912733078,2.33333333333333,3.22470998764038,1.79441106319427
739,0.0990566037735849,2.37238812446594,2.54811573028564,-3.29245283018868,3.26668262481689,1.74620640277863
740,8.48529411764706,2.46497631072998,2.47228837013245,5.71638655462185,3.31539058685303,1.61500072479248
741,0.100591715976331,2.40155172348022,2.89993858337402,-5.63461538461539,3.2316997051239,1.6383353471756
742,2.3255033557047,2.41906666755676,2.34870529174805,10.0822147651007,3.28241539001465,1.72715389728546
743,-2.18387096774194,2.42527985572815,6.49928665161133,-7.87903225806452,3.17464447021484,4.33435249328613
744,-1.5,2.34417653083801,2.90708994865417,3.5,3.1800434589386,2.33901143074036
745,10.4129213483146,2.39942979812622,2.58766198158264,5.07584269662921,3.18501901626587,1.83929038047791
746,-5.98571428571429,2.31970191001892,2.81422162055969,12.5142857142857,3.26834106445312,3.81582427024841
747,-3.35836909871245,2.34984922409058,2.82481384277344,-4.04184549356223,3.27172160148621,2.05461978912354
748,0.865107913669066,2.38596749305725,2.2295241355896,-0.73021582733813,3.26422190666199,2.13031363487244
749,1.39130434782609,2.38024282455444,2.33247804641724,8.03260869565217,3.32777309417725,1.84662771224976
750,-1.17039106145251,2.378009557724,1.59679484367371,-0.0279329608938543,3.26018142700195,2.02012825012207
751,11.7631578947368,2.47476410865784,3.15873432159424,5.68421052631579,3.29140949249268,2.76757907867432
752,3.875,2.56059741973877,3.18331503868103,3.45,3.31607627868652,2.50351786613464
753,17.0480049875312,2.71087384223938,2.62004828453064,6.25,3.36275768280029,2.24421381950378
754,3.42532467532468,2.70691275596619,2.12145781517029,1.52597402597403,3.34782266616821,2.08545804023743
755,6.67877094972067,2.73559737205505,1.62089014053345,7.62150837988827,3.38810706138611,1.72149085998535
756,9.93840579710145,2.7358295917511,3.64734148979187,7.93840579710145,3.38297200202942,2.70410752296448
757,10.8462441314554,2.75698089599609,2.73561668395996,11.0340375586854,3.41610074043274,2.03755807876587
758,7.55095541401274,2.792320728302,3.32697772979736,13.7420382165605,3.49271440505981,2.31055164337158
759,3.04439252336449,2.82200074195862,2.84663367271423,2.64252336448598,3.5511646270752,2.09915828704834
760,10.0455974842767,2.9323046207428,2.78353500366211,7.27987421383648,3.67636346817017,1.92520701885223
761,7.71052631578947,2.95364165306091,3.14162755012512,9.81578947368421,3.72416877746582,2.18008947372437
762,13.9293650793651,3.05333662033081,3.14755272865295,5.72063492063492,3.8214590549469,3.337158203125
763,3.5,3.07396864891052,3.06896209716797,4.75,3.86258959770203,2.71842885017395
764,10.2592592592593,3.15957713127136,2.8900671005249,8.25,3.89237785339355,2.15335512161255
765,4.5,3.14839601516724,2.97372794151306,2.25138121546961,3.88116693496704,2.23412752151489
766,2.25,3.15843629837036,3.06310558319092,2.25,3.87787342071533,2.59609723091125
767,3.93835616438356,3.15049195289612,9.39178943634033,7.18835616438356,3.94438648223877,9.90184211730957
768,5.3505291005291,3.18527269363403,3.06585597991943,7.51719576719577,3.94691896438599,2.4108874797821
769,-1.5,3.17369556427002,2.86938452720642,-0.25,3.85859370231628,2.22209644317627
770,11.4009900990099,3.24303555488586,3.36483860015869,4.1980198019802,3.87991404533386,2.67063665390015
771,4.51127819548872,3.25811076164246,2.65861034393311,9.6296992481203,3.95411205291748,1.87819397449493
772,8.23420074349442,3.32203674316406,3.06312465667725,1.90334572490706,3.96749925613403,2.14488315582275
773,4.3717277486911,3.33680987358093,7.24378204345703,4.79973821989529,3.96324062347412,8.08484077453613
774,9.2065868263473,3.36879324913025,7.23922157287598,-0.565868263473054,3.93007397651672,11.2294988632202
775,10.4209844559585,3.39162397384644,2.18616080284119,7.88730569948187,3.97248697280884,2.13103103637695
776,-12.75,3.2927713394165,2.58436918258667,4.75,4.06423997879028,2.59858226776123
777,1.25980392156863,3.28924775123596,3.00691151618958,9.24509803921569,4.08420753479004,2.75619697570801
778,3.5,3.23627781867981,2.73029136657715,2.25,4.01963138580322,1.94644403457642
779,7.82792207792208,3.29344820976257,3.26480650901794,5.73701298701299,3.97806525230408,2.56662631034851
780,3.08333333333333,3.33638739585876,3.52301263809204,1.76111111111111,4.04254817962646,2.26074481010437
781,3.5,3.33159565925598,2.90140867233276,1,4.07858991622925,2.20047831535339
782,9.1280487804878,3.38578271865845,3.60966014862061,7.76219512195122,4.12367105484009,2.65697240829468
783,3.5,3.4107825756073,3.1587769985199,1,4.12367105484009,2.64498496055603
784,6.89268292682927,3.43094444274902,2.6941933631897,13.3939024390244,4.16278839111328,2.00856399536133
785,8.94488188976378,3.52921342849731,3.14598298072815,5.14370078740157,4.18753433227539,2.44179797172546
786,3.82584269662921,3.51749467849731,2.97652792930603,1.82584269662921,4.12821626663208,2.0258252620697
787,4.76608187134503,3.55093550682068,3.21923208236694,11.9152046783626,4.2259840965271,2.31534123420715
788,0.291436464088398,3.51727533340454,3.05292224884033,7.17265193370166,4.24468851089478,2.47575068473816
789,18.4012605042017,3.68328380584717,2.98688149452209,0.733193277310925,4.23457622528076,1.91815507411957
790,6.86497890295358,3.75470900535583,9.82173442840576,2.36497890295358,4.21038103103638,9.36567687988281
791,3.81774193548387,3.7914514541626,7.2494478225708,9.4758064516129,4.24137401580811,4.7447304725647
792,8.8640350877193,3.82454013824463,3.15719318389893,10.3377192982456,4.28851890563965,2.28998231887817
793,3.5,3.83337640762329,2.93314862251282,3.5,4.26741456985474,2.21008157730103
794,10.509900990099,3.905109167099,3.13719725608826,7.09405940594059,4.30804204940796,2.2255482673645
795,-4.71590909090909,3.85266971588135,3.07203459739685,8.9375,4.29921293258667,2.2545063495636
796,2.95061728395062,3.87561273574829,3.08745694160461,9.39197530864197,4.29511880874634,2.07029986381531
797,12.8154205607477,3.93332147598267,3.37030458450317,2.9696261682243,4.20840120315552,2.20037698745728
798,5.14583333333333,3.96224856376648,3.30112028121948,-3.97916666666667,4.19846439361572,1.44945394992828
799,2.23188405797102,4.03756618499756,3.10884189605713,-0.847826086956522,4.129478931427,2.80581402778625
800,-0.25,3.95883631706238,3.40144777297974,-1.5,4.06517171859741,2.32037615776062
801,8.84319526627219,3.92382740974426,3.14245128631592,5.96153846153846,4.13513898849487,2.23581433296204
802,3.1827485380117,3.93607950210571,3.39899849891663,7.89912280701754,4.11714553833008,2.31087303161621
803,10.8464912280702,3.95547723770142,3.04467272758484,12.9342105263158,4.16827440261841,2.32138776779175
804,1.37234042553191,3.93249034881592,3.42718434333801,10.6170212765957,4.21348857879639,2.42027902603149
805,-1.28488372093023,3.92958950996399,3.17455720901489,2.55813953488372,4.2000412940979,2.86069512367249
806,8.83221476510067,3.90354132652283,2.90611958503723,4.85402684563758,4.2077898979187,1.88226711750031
807,1.27173913043478,3.90535283088684,3.46903300285339,-3.72826086956522,4.15960121154785,1.78500592708588
808,16.5739644970414,3.97076654434204,3.35780787467957,10.1612426035503,4.14591407775879,1.77836573123932
809,12.6571428571429,4.01286458969116,2.9670398235321,12.6571428571429,4.21627378463745,3.76948857307434
810,10.2086330935252,4.09092235565186,3.41985940933228,0.598920863309353,4.20526647567749,2.70767998695374
811,3.46844660194175,4.11571168899536,3.50609755516052,6.75970873786408,4.26033115386963,2.07507729530334
812,1,4.15037822723389,2.92160320281982,-4,4.22196626663208,1.88246703147888
813,3.5,4.12064409255981,3.12496972084045,3.5,4.20450258255005,2.44325971603394
814,9.5,4.15150499343872,8.09020709991455,8.56043956043956,4.22043609619141,8.36558628082275
815,6.45294117647059,4.19619131088257,3.32264804840088,4.45294117647059,4.2267894744873,2.26041007041931
816,2.22350230414746,4.17032194137573,6.06797409057617,7.64400921658986,4.25208902359009,4.9906005859375
817,-3.90909090909091,4.11970520019531,7.44581937789917,1.47727272727273,4.25334501266479,7.34396076202393
818,8.32647058823529,4.15612411499023,3.09828925132751,-1.55588235294118,4.24865436553955,2.26489233970642
819,-1.71857142857143,4.12966728210449,3.17989611625671,5.85857142857143,4.28104496002197,2.35874509811401
820,0.956666666666667,4.13983821868896,2.93483805656433,4.27666666666667,4.25696992874146,2.17728114128113
821,14.0417847025496,4.2237868309021,3.37824606895447,9.71175637393768,4.33980464935303,1.88635408878326
822,7.17054263565891,4.32836771011353,3.25773549079895,4.33720930232558,4.35027551651001,2.22511529922485
823,8.98850574712644,4.36180019378662,2.67795705795288,3.98850574712644,4.34572505950928,2.04276728630066
824,10.3571428571429,4.35296010971069,3.39996576309204,12.8035714285714,4.3248987197876,2.51026034355164
825,6.79493087557604,4.46216297149658,3.67050266265869,3.88018433179724,4.39769601821899,2.30409049987793
826,4.75,4.46786975860596,3.02290177345276,3.5,4.41595315933228,2.18083119392395
827,3.5,4.46120309829712,2.986412525177,6,4.38958883285522,2.49685144424438
828,11.8095238095238,4.53872871398926,3.18671751022339,5.004329004329,4.47399473190308,2.15220165252686
829,2.25,4.51458263397217,3.02719640731812,3.5,4.45538473129272,2.55451893806458
830,11.9805194805195,4.57724714279175,3.34873342514038,13.2305194805195,4.49229717254639,2.2128541469574
831,1,4.58651542663574,3.10842823982239,4.75,4.53919982910156,2.3059344291687
832,12.3341463414634,4.64768600463867,3.43017959594727,6.28414634146341,4.54507827758789,2.62012577056885
833,1.00534759358289,4.65605497360229,3.22105169296265,10.2245989304813,4.59824228286743,2.32192325592041
834,10.2163265306122,4.73487377166748,3.46208715438843,8.39081632653061,4.68226718902588,1.85748302936554
835,3.5,4.73224020004272,2.96010422706604,1,4.64035415649414,2.16739177703857
836,-5.3942731277533,4.6762433052063,3.13511562347412,1.17511013215859,4.6390438079834,2.53917407989502
837,2.89737991266376,4.60715436935425,3.51662445068359,9.40393013100437,4.65436029434204,2.46732950210571
838,10.8269230769231,4.74566745758057,8.16266632080078,-0.917159763313609,4.69057941436768,7.83060216903687
839,2.25,4.78557300567627,3.07107615470886,-6.5,4.72143888473511,1.70165872573853
840,5.29186046511628,4.82235860824585,3.21536946296692,3.88604651162791,4.70442390441895,2.40316224098206
841,8.68961352657005,4.83574724197388,3.31535005569458,13.0132850241546,4.78346633911133,2.62499094009399
842,1.51829268292683,4.73668956756592,3.33595013618469,9.44512195121951,4.76394701004028,2.75057768821716
843,10.3911042944785,4.78858661651611,3.5845935344696,11.2239263803681,4.86008501052856,2.36843538284302
844,2.46875,4.79152679443359,3.21408295631409,0.15625,4.86396598815918,2.32052898406982
845,4.30281690140845,4.78113603591919,3.02661824226379,-2.20539906103286,4.83117008209229,2.54871988296509
846,4.06962025316456,4.74676656723022,4.05443000793457,5.75949367088608,4.82683277130127,2.79696536064148
847,19.0921052631579,4.83661413192749,8.4742488861084,9.02631578947368,4.91137552261353,8.79344272613525
848,0.978260869565218,4.81832885742188,2.97403001785278,5.57608695652174,4.89562559127808,2.03861594200134
849,-0.795698924731183,4.7484884262085,3.55806398391724,-3.35752688172043,4.82974052429199,2.23202991485596
850,6,4.75158977508545,3.29768466949463,-1.5,4.73756742477417,2.28726649284363
851,2.79291845493562,4.71501064300537,3.84890699386597,6.46351931330472,4.70824766159058,2.77539396286011
852,13.3801369863014,4.79689168930054,3.68028211593628,-2.44178082191781,4.62579965591431,2.01304030418396
853,5.55,4.76932191848755,3.3788743019104,-3.84130434782609,4.55178356170654,2.66667890548706
854,18.3136363636364,4.87941598892212,9.05700206756592,14.9636363636364,4.67024898529053,7.66975593566895
855,-0.696721311475409,4.83517026901245,3.27846336364746,9.18852459016393,4.69348573684692,2.62170720100403
856,5.34171597633136,4.8641152381897,3.0781569480896,8.59171597633136,4.74409675598145,3.0429105758667
857,3.93396226415094,4.84696960449219,3.49428367614746,4.7248427672956,4.73357677459717,2.48111081123352
858,2.25,4.83428478240967,3.23241567611694,4.75,4.71219968795776,2.2797110080719
859,5.24629080118694,4.85425996780396,3.13221788406372,2.10979228486647,4.71126508712769,2.03340315818787
860,1.56794871794872,4.85004615783691,7.64697217941284,0.364102564102564,4.68069219589233,6.65861177444458
861,-2.81896551724138,4.76530075073242,3.40513038635254,7.81896551724138,4.6631760597229,2.521075963974
862,6.15882352941177,4.8689112663269,3.85261845588684,1.27647058823529,4.62512874603271,2.9108521938324
863,11.9142857142857,4.92497539520264,8.37997913360596,3.27380952380953,4.57268047332764,7.14555740356445
864,4.84523809523809,4.97614049911499,1.81672775745392,-4.05820105820106,4.58202075958252,1.41179192066193
865,1.99712643678161,4.91787576675415,4.26292610168457,13.8965517241379,4.60878705978394,3.50613713264465
866,-1.63188976377953,4.87420129776001,3.32503509521484,8.67716535433071,4.59758853912354,2.73634505271912
867,-2.99268292682927,4.89602899551392,3.58556890487671,3.71463414634146,4.60654783248901,2.15571141242981
868,9.40540540540541,4.92822217941284,3.80647087097168,5.65540540540541,4.6532506942749,2.259761095047
869,0.148936170212766,4.87363004684448,3.77501106262207,8.78723404255319,4.6281476020813,2.57328915596008
870,9.32038834951456,4.93338251113892,3.4100456237793,-1.2621359223301,4.57792663574219,1.87144720554352
871,6.43037974683544,4.93640518188477,8.04739570617676,12.9398734177215,4.62775611877441,9.20465087890625
872,2.25,4.93640518188477,3.36743712425232,3.5,4.63608932495117,2.72328925132751
873,7.57608695652174,4.93316030502319,3.91111516952515,3.57608695652174,4.61511993408203,2.52161240577698
874,5.31737588652482,4.93260526657104,3.55768370628357,9.14184397163121,4.61365604400635,2.79417037963867
875,9.54066985645933,4.99902105331421,3.15486097335815,14.2284688995215,4.67202281951904,3.02731943130493
876,-7.01935483870968,4.97829341888428,1.87880635261536,-2.45322580645161,4.67137956619263,1.37159144878387
877,4.63636363636364,5.01167583465576,2.1657555103302,1.84090909090909,4.60464000701904,2.78238439559937
878,7.83988764044944,5.03585624694824,3.17869830131531,7.08988764044944,4.59350633621216,2.75970220565796
879,2.56481481481481,5.01618099212646,3.44334745407104,7.92592592592593,4.63782691955566,3.07789039611816
880,6.02303754266211,5.04133462905884,10.8085737228394,5.24573378839591,4.69113206863403,10.3056268692017
881,1,5.03300142288208,3.24749684333801,-10.25,4.62446546554565,1.72286009788513
882,10.315,5.15791654586792,3.68651628494263,-0.235,4.64069795608521,2.23312330245972
883,3.5,5.16625022888184,3.60977840423584,2.25,4.65736436843872,2.63485455513
884,3.5,5.09697675704956,3.41427159309387,3.5,4.58498287200928,2.75812435150146
885,22.2513850415512,5.2386531829834,3.83530068397522,21.196675900277,4.73629379272461,2.52039957046509
886,0.954545454545455,5.19590425491333,6.72805738449097,1.02272727272727,4.70907878875732,6.87512063980103
887,2.13294797687861,5.19216299057007,2.90314936637878,6.70809248554913,4.81170797348022,2.75388550758362
888,3.5,5.17744064331055,3.12775778770447,3.5,4.81948661804199,2.60915088653564
889,6.60526315789474,5.22081565856934,4.07639741897583,8.42105263157895,4.89757633209229,2.57581090927124
890,5.53571428571429,5.2011513710022,9.24566173553467,-6.1547619047619,4.81843566894531,8.03494262695312
891,9.45454545454546,5.26351165771484,3.60840225219727,-0.581818181818181,4.8521203994751,1.92702054977417
892,5.40060240963855,5.28401184082031,3.07602453231812,4.07831325301205,4.81209421157837,2.34758281707764
893,3.5,5.32190465927124,3.86838984489441,2.25,4.87962102890015,2.70304179191589
894,15.1545961002785,5.43293523788452,3.4847137928009,16.3906685236769,4.9655590057373,3.01483035087585
895,-1.03804347826087,5.35659551620483,3.08191895484924,-2.03260869565218,4.91816997528076,2.33424186706543
896,3.99397590361446,5.42312717437744,3.80677175521851,9.77409638554217,4.89990139007568,2.5796115398407
897,-2.62921348314607,5.42798805236816,3.51967597007751,6.53370786516854,4.97040510177612,3.45678806304932
898,4.70886075949367,5.45361280441284,3.63895916938782,16.493670886076,5.0852313041687,2.82162547111511
899,8.59090909090909,5.50161027908325,4.51254510879517,1.80681818181818,5.04372549057007,2.86184597015381
900,4.21301775147929,5.53749942779541,3.94154787063599,3.36834319526627,5.06636810302734,2.17405700683594
901,10.2621951219512,5.52749300003052,5.88581228256226,6.74390243902439,5.07343244552612,5.05998563766479
902,7.46783625730994,5.55144548416138,3.59303545951843,7.78216374269006,5.10231351852417,2.07416129112244
903,-0.25,5.4361252784729,3.30315780639648,4.75,5.09231376647949,2.35681104660034
904,3.96739130434783,5.43973875045776,3.48890829086304,6.46739130434783,5.12525653839111,2.50744438171387
905,12.9082278481013,5.48126888275146,3.75814771652222,6.70569620253165,5.11915016174316,2.75826668739319
906,8.99744027303754,5.47499561309814,10.8242206573486,7.67576791808874,5.1173996925354,8.21032524108887
907,-1.5,5.39268732070923,3.53144192695618,1,5.05050611495972,2.32656836509705
908,7.54559748427673,5.39265155792236,3.86750411987305,5.02987421383648,4.99242496490479,2.53517079353333
909,3.53703703703704,5.39593601226807,3.91678905487061,12.3657407407407,5.05724668502808,2.70665836334229
910,8.88604651162791,5.38820552825928,3.5959837436676,9.94186046511628,5.07499361038208,2.72817039489746
911,12.4333333333333,5.41969060897827,4.14346408843994,-2.06666666666667,4.99577713012695,3.14823889732361
912,10.4751082251082,5.39666271209717,3.90062189102173,4.4491341991342,4.98730039596558,2.28149485588074
913,-0.835635359116022,5.36775827407837,4.2029333114624,-0.748618784530387,4.95064258575439,2.61344504356384
914,-9,5.23936319351196,3.82587146759033,1,4.90230894088745,2.57055616378784
915,1.83695652173913,5.22160959243774,3.46934247016907,-4.47282608695652,4.85748100280762,2.31798768043518
916,8.63855421686747,5.26420021057129,3.79489207267761,6.63855421686747,4.88673782348633,2.68605780601501
917,5.03488372093023,5.27151012420654,3.61540961265564,4.27325581395349,4.86730432510376,2.89625930786133
918,6,5.27583980560303,3.3148193359375,3.5,4.84052276611328,2.49077916145325
919,-1.28141361256545,5.2772970199585,7.41467475891113,-4.717277486911,4.81074094772339,8.14134693145752
920,11.3147482014388,5.2767219543457,4.17937803268433,3.89028776978417,4.8086895942688,2.86512684822083
921,3.5,5.26998043060303,3.55476212501526,6,4.78449153900146,2.75981712341309
922,20.8912698412698,5.35436058044434,3.14722204208374,11.1142857142857,4.84589767456055,3.19281816482544
923,12.7929184549356,5.4105019569397,4.15586614608765,12.7929184549356,4.89918518066406,2.46604108810425
924,5.57608695652174,5.38629865646362,4.27627277374268,-5.37422360248447,4.86712980270386,2.95988535881042
925,-1.90934065934066,5.30409669876099,8.22276401519775,4.81043956043956,4.84661722183228,8.31091785430908
926,14.3816155988858,5.4849739074707,3.33896160125732,15.5689415041783,4.91874408721924,3.05898451805115
927,-4.61363636363636,5.44581747055054,2.61296463012695,2.09090909090909,4.87104892730713,2.9439971446991
928,-7.3,5.37381744384766,3.56816840171814,1.2719512195122,4.86452865600586,2.34927892684937
929,14.3847583643123,5.41753005981445,4.23032903671265,9.32063197026022,4.88841962814331,2.66725182533264
930,16.0914634146341,5.50425052642822,4.27412223815918,13.1646341463415,4.96444320678711,3.30608892440796
931,-1.86702127659574,5.46847105026245,4.17842388153076,0.643617021276596,4.96206760406494,2.74232244491577
932,11.0132850241546,5.48103904724121,3.37939047813416,13.0132850241546,4.99707460403442,2.63198471069336
933,16.2783933518006,5.56622886657715,4.31395244598389,13.0048476454294,5.07710695266724,3.20654988288879
934,9.03289473684211,5.58049631118774,4.62631845474243,7.81578947368421,5.03991937637329,3.04147434234619
935,11.9084507042254,5.60025405883789,4.2080340385437,8.33920187793427,5.06122255325317,3.67107009887695
936,2.46463414634146,5.59117937088013,3.58346223831177,-1.35731707317073,5.0400013923645,2.06411528587341
937,3.37015503875969,5.58187246322632,3.60266900062561,-3.37209302325581,4.93808650970459,2.34954285621643
938,8.76190476190476,5.63834238052368,9.0275297164917,6.46428571428571,4.93336391448975,7.93563842773438
939,3.92156862745098,5.54181051254272,3.1113178730011,6.48529411764706,4.9717116355896,2.81860709190369
940,7.7626582278481,5.54779529571533,4.55908584594727,9.71518987341772,5.02071285247803,2.94685673713684
941,4.75,5.55401086807251,3.17580223083496,3.5,4.98087406158447,2.54664087295532
942,2.25,5.50991678237915,3.15193676948547,-17.75,4.7936224937439,1.91490471363068
943,4.02941176470588,5.51344633102417,4.73137998580933,-1.08529411764706,4.76305437088013,2.9570198059082
944,11.5414634146341,5.52032327651978,4.26985359191895,18.2621951219512,4.83750820159912,3.45112776756287
945,6.47727272727273,5.5949444770813,7.54302835464478,-1.40909090909091,4.76853132247925,7.44916772842407
946,8.67716535433071,5.63312196731567,3.98846173286438,1.21653543307087,4.71402740478516,2.6229772567749
947,10.25,5.61601877212524,3.93013954162598,4.51127819548872,4.72430562973022,2.70019340515137
948,9.70454545454545,5.64641046524048,7.79764461517334,6.93181818181818,4.79704570770264,9.18420028686523
949,8.43037974683544,5.68773365020752,7.90579223632812,13.8417721518987,4.8949761390686,8.26553916931152
950,2.25,5.70440006256104,3.76977825164795,4.75,4.93664264678955,2.62221384048462
951,1.98972602739726,5.65871047973633,10.2226819992065,0.938356164383562,4.9031548500061,10.9276504516602
952,-1.55952380952381,5.6270956993103,3.46717143058777,1.91005291005291,4.86322736740112,2.80994749069214
953,3.12845303867403,5.57564210891724,4.40967988967896,15.1685082872928,4.87812280654907,3.30002665519714
954,-0.270833333333333,5.56468772888184,4.34511232376099,2.125,4.82150983810425,2.57229661941528
955,6,5.61325263977051,3.27654528617859,3.5,4.82778882980347,2.70347595214844
956,8.64184397163121,5.61198425292969,4.00226211547852,6.14184397163121,4.83637428283691,2.56201100349426
957,11.5301204819277,5.68037366867065,3.22526574134827,7.32831325301205,4.91008520126343,2.33367204666138
958,10.284693877551,5.6384449005127,4.23668766021729,10.8173469387755,4.91445875167847,2.80004167556763
959,5.70887445887446,5.59212303161621,4.32004690170288,11.8095238095238,4.90880823135376,3.2141854763031
960,13.9306722689076,5.61693668365479,4.27208232879639,7.13445378151261,4.95237827301025,2.53889107704163
961,-3.29,5.57187986373901,4.03287506103516,3.755,4.9323468208313,2.58958625793457
962,3.92583732057416,5.59138584136963,3.45364928245544,9.32296650717703,5.02116680145264,2.96864628791809
963,2.25,5.58305263519287,3.53327178955078,4.75,5.02950000762939,3.14268016815186
964,3.46428571428571,5.54281425476074,3.7093505859375,1.42532467532468,4.98193216323853,3.23687410354614
965,12.5625,5.58354473114014,4.08545923233032,8.71875,5.01037073135376,2.72172522544861
966,13.695652173913,5.66002559661865,4.83082246780396,3.51086956521739,4.98281717300415,3.42700004577637
967,-4.43387096774194,5.65652704238892,8.1549129486084,-2.93387096774194,4.95340919494629,5.73146438598633
968,-2.27272727272727,5.58586597442627,4.46643447875977,6.47727272727273,5.0069637298584,2.54731369018555
969,0.258733624454149,5.59904766082764,3.85164499282837,11.6834061135371,5.04579591751099,2.75247550010681
970,13.4900881057269,5.68260431289673,3.85643577575684,1.36013215859031,5.02635192871094,2.35002756118774
971,7.35093896713615,5.63799858093262,3.7746787071228,5.14671361502347,4.99591875076294,2.69392156600952
972,8.76623376623377,5.64863634109497,4.00848579406738,7.32792207792208,5.01585674285889,2.67504930496216
973,3.76595744680851,5.61381959915161,4.41427040100098,4.83510638297872,5.02150058746338,3.19579529762268
974,2.25,5.55977153778076,3.55383896827698,3.5,4.95947694778442,2.81975746154785
975,13.989417989418,5.60773468017578,1.9661922454834,5.98015873015873,4.97347688674927,1.69192028045654
976,3.5,5.59940147399902,4.19938659667969,3.5,4.97347688674927,2.81184267997742
977,7.17592592592593,5.62390804290771,4.00054216384888,9.06481481481481,4.99390888214111,3.396892786026
978,10.5394736842105,5.6154408454895,3.96215891838074,9.58771929824561,5.02446460723877,2.93964076042175
979,1,5.60710716247559,3.11202430725098,3.5,5.02446460723877,3.02323174476624
980,16.7196261682243,5.63870143890381,4.42520952224731,11.8411214953271,5.01520204544067,3.14045190811157
981,-3.05063291139241,5.61169767379761,16.7624835968018,4.47257383966245,5.013352394104,12.6349048614502
982,7.6800518134715,5.58067035675049,4.17746162414551,13.9067357512953,5.06416988372803,3.39618015289307
983,4.17934782608696,5.60183048248291,4.35723257064819,2.25,5.01100587844849,3.1023850440979
984,9.30177514792899,5.59573364257812,2.86972284317017,8.59171597633136,5.01234531402588,2.78196549415588
985,6.06904761904762,5.61286020278931,7.56328248977661,13.7261904761905,5.09718656539917,6.55174446105957
986,10.1460396039604,5.7164626121521,4.30165481567383,10.5321782178218,5.15956687927246,3.42681908607483
987,8.31363636363636,5.75257062911987,8.76873779296875,-0.927272727272728,5.0906925201416,8.18764400482178
988,9.44807121661721,5.74337863922119,3.66180372238159,8.68916913946587,5.15473461151123,2.50618982315063
989,3.0252808988764,5.74854755401611,4.59183883666992,8.60112359550562,5.2554087638855,3.24901223182678
990,4.75,5.74493503570557,4.23185873031616,2.25,5.24450206756592,2.95528054237366
991,-1.5,5.67700386047363,3.07720947265625,3.5,5.18107986450195,2.61707949638367
992,10.4739263803681,5.73670816421509,4.14799022674561,11.4294478527607,5.19430875778198,2.90788960456848
993,4.50900900900901,5.69749450683594,4.70553255081177,10.6554054054054,5.19051837921143,3.87479376792908
994,16.5921052631579,5.79164934158325,9.61813926696777,19.4210526315789,5.31895065307617,9.88147449493408
995,4.75,5.79463052749634,4.07986688613892,-0.25,5.33198642730713,3.11156368255615
996,2.25,5.78249979019165,4.22359132766724,4.75,5.32525634765625,3.03284239768982
997,8.5895061728395,5.71248292922974,4.16075420379639,12.4012345679012,5.34775543212891,3.2477343082428
998,7.66340782122905,5.75705099105835,2.53670406341553,5.16340782122905,5.34500503540039,2.83321404457092
999,3.63793103448276,5.78660821914673,4.46519422531128,8.47988505747126,5.42392110824585,3.10561180114746
1000,2.25,5.7616081237793,3.6144106388092,2.25,5.44892072677612,2.77427673339844
1001,13.0057603686636,5.82969379425049,4.73438262939453,2.24193548387097,5.42077732086182,3.05426931381226
1002,6.4,5.78315925598145,5.24099445343018,2.75588235294118,5.45542812347412,3.52802658081055
1003,-0.128980891719745,5.74529933929443,5.18495988845825,2.57324840764331,5.49819183349609,4.18768310546875
1004,11.2368421052632,5.69812107086182,3.89304208755493,8.73684210526316,5.4566798210144,3.02043986320496
1005,4.07861635220126,5.72995615005493,3.84875440597534,-7.5251572327044,5.34525489807129,2.18824648857117
1006,7.11686390532544,5.74179029464722,5.32037734985352,14.4497041420118,5.38430881500244,3.63364887237549
1007,3.35507246376812,5.73793125152588,4.86096382141113,12.9927536231884,5.43942785263062,5.21164655685425
1008,18.2124645892351,5.84434747695923,4.99800062179565,6.54178470254958,5.45137310028076,3.25597524642944
1009,3.33431952662722,5.83160066604614,4.53391933441162,7.23224852071006,5.48552227020264,2.73948693275452
1010,3.18413173652695,5.8423752784729,8.36392879486084,6.91317365269461,5.52918291091919,8.83742809295654
1011,12.7587719298246,5.94622707366943,4.70758247375488,5.84649122807018,5.51603364944458,3.27562856674194
1012,3.69662921348315,5.92981290817261,2.84809541702271,6.54494382022472,5.55115699768066,3.76380562782288
1013,7.12278106508876,5.89786958694458,8.63275241851807,7.8594674556213,5.58172750473022,7.26708030700684
1014,4.75,5.89723443984985,4.02060556411743,3.5,5.63211536407471,2.92108678817749
1015,12.0178571428571,5.96403932571411,4.83235311508179,9.51785714285714,5.60292434692383,3.44857215881348
1016,7.93852459016393,6.02784156799316,3.38914680480957,6.34016393442623,5.5873441696167,3.24852800369263
1017,13.9009900990099,6.14046621322632,5.80342197418213,11.4009900990099,5.63858652114868,4.73296022415161
1018,12.4254385964912,6.16059970855713,4.81387519836426,5.1359649122807,5.63512372970581,3.61065673828125
1019,12.8421658986175,6.24522113800049,7.94410419464111,10.3421658986175,5.64548969268799,7.30427408218384
1020,8.06794871794872,6.23687171936035,7.46758699417114,11.1012820512821,5.72791242599487,8.36771965026855
1021,4.20560747663551,6.2220401763916,4.4302191734314,4.8785046728972,5.67417001724243,3.17959880828857
1022,8.57173913043478,6.26418447494507,4.28376197814941,-0.7,5.64617013931274,4.13096380233765
1023,6.98850574712644,6.26026773452759,3.59919548034668,2.2183908045977,5.63711929321289,2.96580576896667
1024,10.3131067961165,6.29357242584229,5.10653591156006,10.5072815533981,5.64622211456299,3.77460527420044
1025,10.13,6.29750156402588,4.21723508834839,0.124285714285714,5.55219411849976,2.88754653930664
1026,0.25,6.3459644317627,4.85348987579346,11.1052631578947,5.64258432388306,3.17611813545227
1027,4.75,6.34672117233276,3.46171474456787,3.5,5.65364456176758,2.85809373855591
1028,5.76456310679612,6.3328857421875,4.06613206863403,1.15291262135922,5.61406469345093,2.56371593475342
1029,11.7727272727273,6.39427185058594,4.39352083206177,10.1909090909091,5.62916421890259,3.25466632843018
1030,6.7,6.39878511428833,5.15030717849731,4.7,5.6255259513855,3.7174711227417
1031,9.34319526627219,6.45440578460693,4.96132755279541,11.3431952662722,5.76948070526123,3.98149228096008
1032,9.26940639269406,6.44743585586548,5.47486400604248,12.8321917808219,5.85659551620483,3.74770522117615
1033,3.2192513368984,6.44556379318237,3.87631464004517,11.942513368984,5.9212121963501,3.17663908004761
1034,-1.84354838709677,6.40994071960449,2.68670105934143,11.4064516129032,5.97392177581787,1.92965400218964
1035,-15.25,6.15993070602417,2.77975010871887,6,5.87261056900024,2.91347861289978
1036,9.85738255033557,6.21928310394287,4.59312677383423,11.1073825503356,5.93984174728394,3.42840480804443
1037,3.5,6.22839689254761,3.07113981246948,4.75,5.92678785324097,3.0159273147583
1038,6.91176470588235,6.25114154815674,4.28272294998169,-0.588235294117647,5.89953279495239,2.80342984199524
1039,6.44943820224719,6.25010347366333,3.75078082084656,7.76123595505618,5.89513397216797,2.45100784301758
1040,13.5511811023622,6.30353975296021,4.24084186553955,6.3011811023622,5.97817373275757,2.59947395324707
1041,-0.25,6.23884296417236,4.20984554290771,3.5,6.0053858757019,3.30422973632812
1042,16.7785714285714,6.31469583511353,3.79230880737305,11.6357142857143,6.05576801300049,3.92410278320312
1043,11.36,6.36709594726562,4.74633932113647,3.99,6.06736898422241,3.87343907356262
1044,6.26589595375722,6.30783796310425,4.57589626312256,4.97687861271676,5.99127674102783,4.07886362075806
1045,0.181818181818182,6.31597089767456,4.55247831344604,6.03409090909091,6.04505443572998,3.20371246337891
1046,15.2992518703242,6.39133882522583,4.04330444335938,15.2992518703242,6.0818886756897,2.90620279312134
1047,6,6.4488673210144,3.07233047485352,2.25,6.05333089828491,2.82902956008911
1048,-5.84139784946237,6.37853193283081,4.73900651931763,-6.39247311827957,5.90075635910034,3.25781488418579
1049,6,6.36125898361206,4.33272457122803,1,5.89537763595581,3.24896764755249
1050,8.33908045977011,6.38876628875732,4.73821258544922,9.11781609195402,5.93370771408081,3.57371711730957
1051,5.9247311827957,6.35984945297241,4.79495048522949,-4.92204301075269,5.85593461990356,3.19123601913452
1052,7.36111111111111,6.35913801193237,4.93601369857788,10.7361111111111,5.8756275177002,3.38075113296509
1053,10.457337883959,6.43052101135254,11.1602239608765,13.929180887372,5.93682193756104,11.6745796203613
1054,4.75,6.43573808670044,3.40268325805664,3.5,5.91703939437866,2.89989042282104
1055,3.57967032967033,6.37354755401611,9.7465238571167,15.1895604395604,5.97359848022461,9.75661182403564
1056,5.375,6.34939765930176,4.24743556976318,6.21875,5.96388530731201,3.0234489440918
1057,10.2745901639344,6.42789554595947,3.7551531791687,15.6352459016393,6.06145286560059,3.50251507759094
1058,7.08356545961003,6.42481517791748,4.70262670516968,13.1385793871866,6.11551094055176,4.17429876327515
1059,0.424556213017751,6.40406513214111,5.14256381988525,-1.20414201183432,6.02504539489746,3.37461161613464
1060,1.35602094240838,6.3538646697998,7.86594009399414,4.91230366492147,5.99151515960693,9.35319042205811
1061,7.42052023121387,6.3204460144043,4.77906942367554,7.95809248554913,6.05834674835205,3.98458695411682
1062,6,6.290611743927,3.09415912628174,6,6.06868600845337,3.12084937095642
1063,3.5,6.31951665878296,4.7996973991394,3.5,6.09701013565063,3.51509714126587
1064,5.43181818181818,6.41572856903076,6.31607103347778,4.61363636363636,6.12110090255737,7.36708354949951
1065,7.35778443113773,6.45253419876099,9.48791122436523,8.60778443113773,6.20830535888672,9.02819347381592
1066,11.1052631578947,6.46897888183594,4.95723247528076,9.10526315789474,6.22474956512451,3.54572439193726
1067,2.82861635220126,6.45427083969116,3.73892736434937,0.328616352201258,6.19845199584961,2.44747471809387
1068,17.1477556109726,6.52858877182007,3.92738437652588,2.07481296758105,6.18895101547241,2.71473598480225
1069,6,6.5771312713623,3.47900629043579,-1.5,6.21039962768555,2.76450061798096
1070,-2.19411764705882,6.48707246780396,5.52671813964844,8.98823529411765,6.24438619613647,4.26430130004883
1071,7.40882352941177,6.5131311416626,5.20902633666992,0.761764705882353,6.20946407318115,3.91910266876221
1072,9.39268292682927,6.43647432327271,4.35521984100342,6.50731707317073,6.17875099182129,3.05851459503174
1073,5.76550387596899,6.38962459564209,4.02210474014282,2.01550387596899,6.1069016456604,2.69390034675598
1074,-1.46232876712329,6.34270191192627,11.8447933197021,-1.06164383561644,6.1356520652771,11.9004983901978
1075,9.71264367816092,6.42018127441406,4.96240186691284,9.89367816091954,6.16954040527344,3.44972562789917
1076,4.75,6.35597085952759,4.57532119750977,6,6.10574769973755,3.20321202278137
1077,8.82608695652174,6.44556903839111,5.24927520751953,12.3866459627329,6.17438554763794,3.94243311882019
1078,11.1379310344828,6.56848859786987,4.84884119033813,-5.42241379310345,6.12975645065308,3.30276250839233
1079,8.80555555555556,6.53129386901855,5.21281671524048,3.23148148148148,6.08916282653809,4.32902765274048
1080,1,6.4306845664978,5.03286552429199,3.5,6.02473163604736,3.66796278953552
1081,5.63604651162791,6.48070478439331,4.31856489181519,7.63604651162791,6.07134771347046,3.17759585380554
1082,5.78174603174603,6.44582748413086,4.2117280960083,5.3505291005291,6.02026224136353,3.34277844429016
1083,6,6.3773045539856,3.95449948310852,4.75,5.96522998809814,3.40549087524414
1084,17.0928571428571,6.43103837966919,5.05478048324585,14.7357142857143,6.01136255264282,3.81464290618896
1085,12.6930379746835,6.43626880645752,4.73633480072021,12.6170886075949,6.03988218307495,3.82761430740356
1086,19.0921052631579,6.54711818695068,11.3740968704224,7.64473684210526,6.09989595413208,10.3559970855713
1087,4.75,6.55631732940674,4.44969844818115,4.75,6.15404319763184,3.22282886505127
1088,9.78314917127072,6.56312561035156,5.02729320526123,14.6864640883978,6.20885801315308,4.20179224014282
1089,2.38571428571429,6.55288648605347,4.92987823486328,1.18265306122449,6.17350673675537,3.42411065101624
1090,14.0921658986175,6.59508323669434,7.60738468170166,9.18433179723502,6.16996765136719,7.66286516189575
1091,9.81578947368421,6.62885475158691,4.98286056518555,9.0328947368421,6.20685386657715,3.62011861801147
1092,10.1634078212291,6.68161153793335,3.34381651878357,7.41340782122905,6.37460994720459,3.4443953037262
1093,4.92258064516129,6.68756580352783,8.21432304382324,-7.93387096774194,6.32895278930664,5.76292419433594
1094,4.75,6.64228963851929,3.45959281921387,3.5,6.23053789138794,2.93133091926575
1095,-1.43959107806691,6.58951044082642,3.61380290985107,10.5631970260223,6.31035423278809,3.10864281654358
1096,14.2214611872146,6.62647199630737,5.52928018569946,9.5,6.36557722091675,3.86767172813416
1097,2.25,6.57313871383667,4.48082590103149,6,6.37550163269043,3.28053307533264
1098,4.84171597633136,6.54071998596191,3.98797869682312,9.23668639053254,6.39086771011353,2.86393928527832
1099,5.23850574712644,6.5194411277771,4.45991086959839,10.5431034482759,6.3688759803772,3.46357417106628
1100,1.54901960784314,6.51476716995239,3.76917243003845,10.2990196078431,6.40586996078491,3.42303919792175
1101,3.5,6.52483558654785,3.58100438117981,4.75,6.43128061294556,3.28377318382263
1102,-4.46348314606742,6.5054759979248,4.34211730957031,-2.52247191011236,6.40173006057739,2.94470381736755
1103,4.75,6.51628684997559,4.39470815658569,6,6.34060716629028,3.23859882354736
1104,14.6512605042017,6.61576747894287,5.11553764343262,7.98109243697479,6.37964773178101,3.17549514770508
1105,4.75,6.60743427276611,4.76974391937256,6,6.39631414413452,3.28315806388855
1106,9.13419913419913,6.61071634292603,5.09863424301147,7.79978354978355,6.40736722946167,3.82287645339966
1107,7.46348314606742,6.58360576629639,5.08757448196411,11.1011235955056,6.43251943588257,3.89714074134827
1108,13.6884057971014,6.6062970161438,4.21849155426025,11.1884057971014,6.43499279022217,3.91212725639343
1109,13.9009900990099,6.66091156005859,6.45046901702881,16.8910891089109,6.46887016296387,5.22835111618042
1110,4.07792207792208,6.5952262878418,4.60087585449219,-4.2987012987013,6.39264869689941,3.46543216705322
1111,2.65645161290323,6.63486957550049,2.58572030067444,5.15645161290323,6.4019923210144,1.94009757041931
1112,8.52717391304348,6.66554498672485,5.24527359008789,12.6032608695652,6.42386054992676,4.1154670715332
1113,5.09239130434783,6.68449401855469,5.30821323394775,9.21739130434783,6.45364284515381,4.27569484710693
1114,7.82792207792208,6.71358489990234,4.93387842178345,6.98701298701299,6.49072122573853,4.61685705184937
1115,5.69360902255639,6.66779232025146,4.94818353652954,7.26127819548872,6.48100519180298,3.88091802597046
1116,5.28658536585366,6.611732006073,5.14554929733276,12.3853658536585,6.54016828536987,3.71924614906311
1117,0.77808988764045,6.64647817611694,3.47053003311157,8.13202247191011,6.61394071578979,4.02495956420898
1118,6.52631578947368,6.70513820648193,5.20254230499268,1.17543859649123,6.57859516143799,3.4750759601593
1119,8.28917050691244,6.75867509841919,5.13968229293823,6.25691244239631,6.54241847991943,3.22756457328796
1120,4.2,6.69674062728882,5.07425975799561,7.725,6.58485126495361,3.86390805244446
1121,3.13872403560831,6.66865968704224,4.56821918487549,10.8597922848665,6.62293815612793,3.64986681938171
1122,5.82207207207207,6.64903163909912,5.65952730178833,6.00225225225225,6.61410045623779,4.67664766311646
1123,9.42613636363636,6.68676614761353,5.10018682479858,4.78409090909091,6.61376047134399,3.19773983955383
1124,1.54824561403509,6.68208837509155,4.98440551757812,-9.58479532163743,6.52652835845947,2.1616039276123
1125,4.75,6.62049245834351,4.56268739700317,6,6.52666044235229,3.58456134796143
1126,6,6.63715887069702,3.596919298172,6,6.54332733154297,3.35005164146423
1127,6.74444444444445,6.63428211212158,5.41327905654907,3.27222222222222,6.50470972061157,4.18640327453613
1128,8.7378640776699,6.62227153778076,4.46296977996826,-0.776699029126213,6.43561363220215,2.4771134853363
1129,9.7239263803681,6.68043041229248,5.01273965835571,9.7239263803681,6.47710657119751,3.73576140403748
1130,3.9124203821656,6.59504890441895,6.28418064117432,10.6257961783439,6.46900415420532,5.27894592285156
1131,9.85128205128205,6.68106174468994,8.0023832321167,11.5230769230769,6.51600790023804,8.69911479949951
1132,15.5132850241546,6.73328351974487,4.05663871765137,11.7632850241546,6.50171852111816,3.49745559692383
1133,12.9342105263158,6.79164934158325,5.20708417892456,12.7587719298246,6.57177686691284,4.09165573120117
1134,3.5,6.75297069549561,3.63119697570801,4.75,6.54616546630859,3.25103664398193
1135,4.75,6.74417734146118,4.61036968231201,6,6.49465751647949,3.74710631370544
1136,11.2057142857143,6.75124168395996,4.74732065200806,2.62428571428571,6.44193744659424,2.96750545501709
1137,4.75,6.72748422622681,3.29667997360229,4.75,6.47978591918945,3.01878619194031
1138,14.7086330935252,6.76255464553833,5.76278686523438,8.38669064748201,6.47776985168457,4.80387926101685
1139,-0.259036144578313,6.74065923690796,5.71065902709961,8.63855421686747,6.47801971435547,4.8744592666626
1140,2.6240157480315,6.72648572921753,5.02234745025635,9.71062992125984,6.52775716781616,3.8390679359436
1141,-3.00655021834061,6.7164421081543,3.47931957244873,0.448689956331878,6.50741481781006,2.52789378166199
1142,11.1073825503356,6.72066497802734,5.14179944992065,12.5788590604027,6.51507711410522,3.90774178504944
1143,3.5,6.71393871307373,3.58526253700256,3.5,6.46737480163574,3.47599983215332
1144,13.8977272727273,6.69597578048706,5.79077959060669,8.96590909090909,6.3976731300354,4.41974258422852
1145,6.74556213017751,6.70928001403809,5.87969064712524,7.59023668639053,6.44994163513184,4.40818881988525
1146,8.09319526627219,6.74823427200317,5.37056493759155,11.6449704142012,6.49590873718262,4.35520935058594
1147,8.93037974683544,6.75050687789917,9.55305957794189,4.0253164556962,6.4400691986084,8.54070281982422
1148,7.82594936708861,6.75159025192261,5.75723743438721,9.58227848101266,6.46952819824219,4.22578954696655
1149,8.11144578313253,6.78141355514526,4.1614670753479,8.28012048192771,6.46819639205933,3.4183201789856
1150,12.6285046728972,6.85060405731201,5.56418800354004,-0.341121495327103,6.45092248916626,4.21319484710693
1151,13.0595238095238,6.85096263885498,5.49254846572876,15.5595238095238,6.53970623016357,4.55388879776001
1152,5.61893203883495,6.84575510025024,5.33941125869751,8.86893203883495,6.58046007156372,4.34069728851318
1153,13.6656804733728,6.93771982192993,7.51471853256226,9.62278106508876,6.62745714187622,7.13322257995605
1154,10.1800518134715,6.93067455291748,5.32602787017822,7.19430051813472,6.61717367172241,4.31487274169922
1155,3.5,6.92681741714478,4.8399772644043,2.25,6.6823410987854,3.61586165428162
1156,1.90434782608696,6.89206647872925,4.88583469390869,-0.7,6.58134269714355,4.41811180114746
1157,12.2492917847025,6.95136165618896,5.84812450408936,15.0325779036827,6.59494161605835,4.26739168167114
1158,8,6.88327789306641,3.98641610145569,10.8409090909091,6.62360286712646,3.97445702552795
1159,13.192513368984,6.94899988174438,4.54257965087891,0.866310160427808,6.58116340637207,2.37686347961426
1160,14.2210300429185,7.02257871627808,5.13005304336548,3.49248927038627,6.55835866928101,2.77360439300537
1161,4.75,6.96918678283691,5.21331262588501,6,6.55938196182251,3.74484610557556
1162,8.86231884057971,7.00362539291382,5.6063551902771,9.58695652173913,6.57966184616089,5.38600730895996
1163,-0.337301587301588,6.95389175415039,1.8958648443222,10.239417989418,6.59552812576294,1.78323340415955
1164,4.02482269503546,6.94905662536621,3.86971664428711,1.64184397163121,6.58314037322998,2.42400622367859
1165,10.8958333333333,6.94157648086548,5.59050416946411,7.14583333333333,6.56732702255249,3.40242385864258
1166,2.25,6.90365314483643,5.00569295883179,6,6.56505918502808,3.47432708740234
