EpisodeIndex,DQNEpisodeReward,DQNAverageReward,DQNEpisodeQ0,DDQNEpisodeReward,DDQNAverageReward,DDQNEpisodeQ0
1,-19.92,-19.9200000762939,0.0357997417449951,-15.84,-15.8400001525879,0.0357997417449951
2,-19.92,-19.9200000762939,0.772105276584625,-17.88,-16.8600006103516,0.594198167324066
3,-21.129756097561,-20.3232517242432,-0.0724188014864922,-18.3726829268293,-17.3642272949219,0.385836392641068
4,-16.9552263374486,-19.4812469482422,0.887126922607422,-18.6401646090535,-17.6832122802734,0.978866159915924
5,-19.2228571428571,-19.4295692443848,-0.284474194049835,-16.1657142857143,-17.379711151123,0.392624139785767
6,-9.72,-17.8113079071045,0.269610404968262,-17.88,-17.4630947113037,0.871199309825897
7,-13.26,-17.1611194610596,0.38689249753952,-15.76,-17.2197952270508,-1.01536166667938
8,-11.68,-16.4759788513184,0.982976973056793,-17.84,-17.2973213195801,0.330720722675323
9,-13.9481440443213,-16.1951084136963,0.822866439819336,-22.9322991689751,-17.9234275817871,0.942736208438873
10,-16.8956937799043,-16.2651672363281,0.38702517747879,-18.2836363636364,-17.9594478607178,-0.793036818504333
11,-19.92,-16.5974254608154,1.06706643104553,-7.52,-17.0104084014893,0.82707154750824
12,-17.88,-16.7043056488037,-0.153625279664993,-12.5828571428571,-16.6414451599121,1.38944280147552
13,-14.5781818181818,-16.5407581329346,-0.265792191028595,-20.2187012987013,-16.916618347168,1.27578020095825
14,-16.9481188118812,-16.5698547363281,-0.435716062784195,-17.1770297029703,-16.9352207183838,0.509872496128082
15,-17.0099716713881,-16.5991954803467,0.652575135231018,-16.4433994334278,-16.9024314880371,0.626465320587158
16,-18.2606113537118,-16.7030353546143,0.58111846446991,-16.0627074235808,-16.8499488830566,-0.0144332498311996
17,-16.4247953216374,-16.6866683959961,0.684070408344269,-11.76,-16.5505409240723,0.639994263648987
18,-13.972268907563,-16.53586769104,0.807152390480042,-18.4598319327731,-16.6566104888916,0.302070707082748
19,-14.7660975609756,-16.4427223205566,0.458969742059708,-21.3163414634146,-16.9018611907959,0.146557837724686
20,-15.2927102803738,-16.3852195739746,1.01190876960754,-13.8534579439252,-16.7494411468506,-0.0382448136806488
21,-17.88,-16.4563999176025,0.990466296672821,-15.88,-16.7080402374268,0.0822657197713852
22,-12.2607929515418,-16.2656917572021,1.60666024684906,-21.1843171806167,-16.911506652832,0.704535245895386
23,-12.7167251461988,-16.1113891601562,0.741908729076385,-9.73356725146199,-16.599422454834,0.477278709411621
24,-13.3590243902439,-15.9967079162598,1.5075546503067,-19.92,-16.7377796173096,0.224889919161797
25,-19.2114917127072,-16.1252994537354,1.10147500038147,-12.7394475138122,-16.5778465270996,0.174916177988052
26,-19.92,-16.2712478637695,1.01839876174927,-7.64,-16.2340812683105,0.570723831653595
27,-19.96,-16.4078693389893,0.598287284374237,-15.9536363636364,-16.2236957550049,0.919077515602112
28,-9.68,-16.1675891876221,0.951083779335022,-17.88,-16.2828483581543,0.664291143417358
29,-13.68,-16.0818099975586,0.998931407928467,-9.48,-16.048267364502,0.86281943321228
30,-14.8776470588235,-16.0416698455811,0.928749024868011,-13.9482352941176,-15.9782676696777,0.168695867061615
31,-12.2691089108911,-15.919976234436,0.789940774440765,-16.309900990099,-15.9889640808105,0.109975881874561
32,-18.4164028776978,-15.997989654541,0.0711371898651123,-18.5454676258993,-16.0688552856445,0.0151814026758075
33,-17.88,-16.0550212860107,0.602500438690186,-10.4244680851064,-15.8978137969971,-0.0193963944911957
34,-16.2861111111111,-16.0618152618408,0.6870157122612,-14.5112962962963,-15.8570337295532,-0.373932212591171
35,-16.2225352112676,-16.0664081573486,0.772930383682251,-17.9361502347418,-15.9164381027222,0.788332521915436
36,-15.2994392523364,-16.0451030731201,1.08155131340027,-14.407476635514,-15.8745222091675,-0.336977571249008
37,-18.7612598425197,-16.1185131072998,0.0590618811547756,-19.96,-15.9849395751953,-0.186445027589798
38,-14.5384810126582,-16.0769329071045,1.03012454509735,-10.5724050632911,-15.8425035476685,0.227555066347122
39,-13.8182524271845,-16.0190181732178,1.04509234428406,-21.96,-15.9993629455566,-0.967149257659912
40,-18.8442857142857,-16.0896492004395,0.743312180042267,-24,-16.1993789672852,0.174501210451126
41,-13.76,-16.032829284668,0.885277986526489,-15.8,-16.1896381378174,0.0639326348900795
42,-18.6472727272727,-16.0950775146484,0.71953958272934,-12.5109090909091,-16.1020488739014,0.0101685533300042
43,-16.2926086956522,-16.0996723175049,0.895874559879303,-16.63,-16.1143264770508,0.059228703379631
44,-17.88,-16.1401348114014,1.08257210254669,-11.72,-16.0144577026367,0.149780571460724
45,-17.92,-16.1796875,0.286318004131317,-16.63,-16.0281352996826,0.324403434991837
46,-16.8657894736842,-16.19460105896,0.26056706905365,-13.2594736842105,-15.9679460525513,0.361776918172836
47,-15.435838150289,-16.1784572601318,1.10516381263733,-13.9512138728324,-15.9250383377075,0.356304526329041
48,-13.76,-16.1280727386475,0.879600942134857,-16.1774233128834,-15.9302949905396,0.406527668237686
49,-7.6,-15.9540319442749,1.038409948349,-13.8,-15.8868207931519,0.454131513834
50,-12.97,-15.8943510055542,0.196675926446915,-21.96,-16.0082836151123,0.485800385475159
51,-20.1952808988764,-15.9786834716797,1.05174458026886,-11.4258426966292,-15.9184331893921,0.571012079715729
52,-21.4932484076433,-16.0847320556641,0.58823835849762,-21.5997452229299,-16.0276889801025,0.530216634273529
53,-21.96,-16.1955852508545,0.752211213111877,-13.1454385964912,-15.9733066558838,0.363196969032288
54,-18.1666666666667,-16.2320880889893,0.832036435604095,-14.6666666666667,-15.9491090774536,0.413918614387512
55,-14.4586301369863,-16.1998443603516,0.202578127384186,-12.8832876712329,-15.8933668136597,1.38181567192078
56,-14.16,-16.1634178161621,0.435850143432617,-18.4027906976744,-15.938178062439,0.461607128381729
57,-20.6913310580205,-16.2428531646729,-0.0906129777431488,-15.7283276450512,-15.9344968795776,-1.14637851715088
58,-17.88,-16.2710800170898,1.02108561992645,-11.72,-15.8618335723877,0.843575656414032
59,-20.8617989417989,-16.3488903045654,0.510645389556885,-11.767619047619,-15.7924394607544,-0.285739898681641
60,-11.2540909090909,-16.2639770507812,0.750912964344025,-14.1345454545455,-15.7648067474365,0.762449026107788
61,-21.96,-16.3573532104492,0.434664815664291,-19.4063157894737,-15.8245048522949,0.729674875736237
62,-18.8274213836478,-16.3971939086914,1.05295443534851,-18.2699371069182,-15.8639469146729,0.718583464622498
63,-19.96,-16.4537467956543,0.929193377494812,-10.9565957446809,-15.7860536575317,0.588661730289459
64,-19.92,-16.507905960083,0.967282116413116,-13.8,-15.7550201416016,0.519964933395386
65,-10.0779874213836,-16.4089851379395,1.05236792564392,-13.72,-15.7237119674683,-0.987439930438995
66,-17.2836795252226,-16.4222373962402,0.763236463069916,-15.76,-15.7242612838745,0.705743074417114
67,-15.8,-16.4129505157471,0.533861219882965,-13.8,-15.6955423355103,0.59286242723465
68,-12.4376811594203,-16.3544902801514,0.617374300956726,-11.6904347826087,-15.636643409729,-0.343979239463806
69,-15.6958333333333,-16.3449440002441,1.00680065155029,-13.5291666666667,-15.6061000823975,0.339853942394257
70,-16.6731707317073,-16.3496341705322,0.594887971878052,-14.2429268292683,-15.5866260528564,0.405558943748474
71,-21.96,-16.4286518096924,0.467936664819717,-17.88,-15.6189270019531,0.57360965013504
72,-17.4630434782609,-16.4430179595947,0.5934197306633,-10.676231884058,-15.5502796173096,0.641134142875671
73,-20.4255248618785,-16.4975738525391,0.502807319164276,-13.2904972375691,-15.5193243026733,0.610591113567352
74,-17.0090322580645,-16.5044860839844,0.328080415725708,-12.661935483871,-15.4807100296021,2.73014402389526
75,-16.6225108225108,-16.5060596466064,0.657562375068665,-13.737316017316,-15.4574642181396,0.771263837814331
76,-12.3103355704698,-16.4508514404297,1.22326874732971,-21.96,-15.543023109436,0.479294419288635
77,-15.4024096385542,-16.43723487854,0.897525727748871,-18.6149397590361,-15.5829191207886,0.391555726528168
78,-19.92,-16.4818859100342,0.931443989276886,-13.8,-15.5600605010986,0.401818960905075
79,-18.0562162162162,-16.5018157958984,1.24384915828705,-13.2864864864865,-15.5312805175781,0.451954573392868
80,-12.3184415584416,-16.4495239257812,0.655052185058594,-14.5781818181818,-15.5193662643433,0.533746361732483
81,-20.3477777777778,-16.4976501464844,0.88252329826355,-13.5144444444444,-15.4946155548096,0.653197467327118
82,-10.6489940828402,-16.4263248443604,0.879498898983002,-16.5323076923077,-15.5072689056396,0.641237199306488
83,-16.3844155844156,-16.4258193969727,0.830205798149109,-17.6841558441558,-15.5334968566895,0.539533019065857
84,-18.3511111111111,-16.4487400054932,0.586809992790222,-18.9003174603175,-15.5735778808594,0.258929222822189
85,-9.64,-16.3686370849609,0.888177096843719,-9.72,-15.5047130584717,0.242012247443199
86,-21.96,-16.4336528778076,1.00829803943634,-22.741954887218,-15.5888671875,0.304307341575623
87,-12.6203883495146,-16.3898220062256,0.399954736232758,-20.0316504854369,-15.6399335861206,0.345678806304932
88,-14.2721189591078,-16.365758895874,0.0125759989023209,-13.2999256505576,-15.6133422851562,0.308397948741913
89,-22.005,-16.4291191101074,0.0560091808438301,-16.445,-15.6226873397827,0.238240718841553
90,-17.92,-16.4456844329834,-0.386429309844971,-14.6941317365269,-15.6123695373535,-2.58529257774353
91,-16.5139130434783,-16.4464340209961,0.954004347324371,-20.5776086956522,-15.6669321060181,0.257826536893845
92,-18.753417721519,-16.4715099334717,-0.199792802333832,-13.9751898734177,-15.6485433578491,2.87456035614014
93,-15.84,-16.4647197723389,0.823946177959442,-11.9315976331361,-15.6085767745972,0.127741247415543
94,-20.6832850241546,-16.5095996856689,0.760204076766968,-16.6432850241546,-15.6195850372314,0.0689365416765213
95,-18.9372413793103,-16.5351543426514,-0.610393702983856,-6.26735632183908,-15.5211400985718,0.0473837330937386
96,-19.92,-16.5704116821289,0.749232411384583,-9.68,-15.4602956771851,0.258028596639633
97,-18.7074698795181,-16.5924434661865,0.513761401176453,-12.1898795180723,-15.4265794754028,0.470302522182465
98,-22.5186034912718,-16.6529140472412,-0.134061679244041,-17.7401496259352,-15.4501867294312,0.494883239269257
99,-17.616091954023,-16.6626434326172,-0.480883568525314,-13.8864367816092,-15.4343919754028,0.376608431339264
100,-21.9877777777778,-16.7158946990967,-0.360965430736542,-15.1455555555556,-15.4315042495728,0.315381824970245
101,-20.4593258426966,-16.7529582977295,-0.300984382629395,-16.3730337078652,-15.4408264160156,0.199287876486778
102,-15.8,-16.743616104126,0.0209046192467213,-11.72,-15.4043474197388,0.118595063686371
103,-13.3667415730337,-16.7108287811279,0.875367760658264,-13.281797752809,-15.3837394714355,0.209308564662933
104,-17.3976470588235,-16.7174339294434,1.13380229473114,-10.3929411764706,-15.3357524871826,0.371591418981552
105,-10.0305590062112,-16.653751373291,0.587752521038055,-17.92,-15.3603630065918,0.393326729536057
106,-21.96,-16.7038097381592,-0.378878086805344,-13.8818181818182,-15.34641456604,-0.260544449090958
107,-14.3172413793103,-16.6815032958984,0.724900603294373,-11.3296551724138,-15.308874130249,0.485226571559906
108,-13.8,-16.6548233032227,0.609283328056335,-17.88,-15.3326797485352,-1.38817024230957
109,-20.6637037037037,-16.6916027069092,1.01426529884338,-16.815873015873,-15.346287727356,0.387913137674332
110,-12.4891191709845,-16.6533966064453,1.01917171478271,-12.1973056994819,-15.3176603317261,0.420389652252197
111,-21.96,-16.7012042999268,1.05934381484985,-17.84,-15.3403844833374,0.351927608251572
112,-14.3621301775148,-16.6803188323975,0.668909847736359,-9.96544378698225,-15.2923955917358,0.386214047670364
113,-24,-16.745096206665,-1.09271514415741,-19.7371428571429,-15.3317289352417,0.473567008972168
114,-22.30375,-16.7938556671143,1.18798565864563,-17.2775,-15.3487977981567,0.561070322990417
115,-14.6741630901288,-16.7754249572754,0.739683270454407,-18.5981115879828,-15.3770532608032,0.496785074472427
116,-19.7947286821705,-16.8014526367188,0.802572190761566,-20.4471317829457,-15.4207592010498,0.145212844014168
117,-17.92,-16.8110122680664,1.03054702281952,-7.56,-15.3535737991333,0.421302229166031
118,-10.553417721519,-16.7579822540283,1.31185269355774,-15.8779746835443,-15.3580179214478,0.51367050409317
119,-13.2543137254902,-16.7285385131836,0.964223444461823,-17.0409803921569,-15.3721609115601,0.650045275688171
120,-20.1415909090909,-16.7569808959961,1.10567283630371,-11.0481818181818,-15.3361263275146,0.670202851295471
121,-18.2436363636364,-16.7692680358887,0.597731292247772,-10.4863636363636,-15.2960453033447,0.73138028383255
122,-17.84,-16.7780437469482,0.705793559551239,-12.5609523809524,-15.2736263275146,0.589290022850037
123,-13.72,-16.7531814575195,0.49776953458786,-14.4193548387097,-15.2666816711426,-0.216515153646469
124,-19.92,-16.7787208557129,0.504432320594788,-16.5384615384615,-15.2769384384155,0.402681022882462
125,-15.2388185654008,-16.7664031982422,0.0304740965366364,-17.4855696202532,-15.2946071624756,-0.0893894135951996
126,-13.8,-16.7428569793701,-0.0271672606468201,-17.9050887573964,-15.3153247833252,0.493574142456055
127,-7.6,-16.6708679199219,0.953457474708557,-9.76,-15.2715826034546,0.551713883876801
128,-15.0825806451613,-16.6584587097168,0.850544571876526,-16.0704147465438,-15.2778234481812,0.654497027397156
129,-12.2339906103286,-16.6241588592529,0.62512868642807,-13.1353990610329,-15.2612161636353,0.613779783248901
130,-19.92,-16.6495113372803,0.616267621517181,-11.0747368421053,-15.2290124893188,0.0559050440788269
131,-18.7140157480315,-16.6652736663818,0.321531772613525,-13.1530708661417,-15.2131652832031,0.424179226160049
132,-17.88,-16.6744747161865,1.03995180130005,-24,-15.2797327041626,0.414911925792694
133,-11.9313043478261,-16.6388130187988,1.09561085700989,-14.655652173913,-15.2750387191772,0.419678449630737
134,-17.84,-16.6477756500244,1.04552245140076,-15.84,-15.2792558670044,0.443522930145264
135,-19.1358139534884,-16.6662082672119,0.451503783464432,-17.88,-15.2985210418701,0.2766273021698
136,-15.84,-16.6601314544678,1.14446294307709,-15.88,-15.3027973175049,0.424184679985046
137,-16.082722513089,-16.6559162139893,0.322066843509674,-17.4282722513089,-15.3183116912842,-0.992264270782471
138,-11.72,-16.6201496124268,1.18005847930908,-15.76,-15.32151222229,0.674273431301117
139,-11.9894063926941,-16.5868339538574,1.10066270828247,-8.91397260273973,-15.2754154205322,0.798473298549652
140,-20.4231754874652,-16.614236831665,0.516231119632721,-15.0041225626741,-15.2734756469727,0.792788147926331
141,-12.3435294117647,-16.5839462280273,0.819631099700928,-16.8047058823529,-15.2843351364136,0.666291892528534
142,-17.84,-16.592794418335,0.684919655323029,-14.2960869565217,-15.2773780822754,0.437824100255966
143,-15.8,-16.5872478485107,0.703539848327637,-11.64,-15.2519407272339,0.39794710278511
144,-13.84,-16.5681705474854,1.10011506080627,-21.96,-15.2985248565674,0.566669106483459
145,-15.88,-16.5634269714355,0.918459832668304,-20.3501675977654,-15.33336353302,0.698389828205109
146,-12.76,-16.53737449646,0.946825623512268,-23.0722994652406,-15.3863697052002,0.724874079227448
147,-8.565,-16.4831409454346,1.13708162307739,-15.865,-15.3896255493164,0.638284981250763
148,-14.3387755102041,-16.4686508178711,0.930942952632904,-20.1412244897959,-15.4217319488525,0.538667738437653
149,-13.9239344262295,-16.4515724182129,1.02098667621613,-17.1350819672131,-15.4332304000854,0.488037496805191
150,-11.7715976331361,-16.420373916626,1.21015381813049,-16.6816568047337,-15.4415531158447,0.47732225060463
151,-19.88,-16.4201068878174,0.225576728582382,-14.16,-15.4303531646729,-1.28231620788574
152,-19.481797752809,-16.4171867370605,0.529934525489807,-10.9208988764045,-15.3839597702026,-0.504828333854675
153,-13.9560975609756,-16.3693618774414,1.1248197555542,-17.2926829268293,-15.3767595291138,0.584032237529755
154,-20.4372413793103,-16.3925743103027,0.699136972427368,-21.96,-15.3988914489746,0.643446326255798
155,-15.84,-16.370023727417,0.976132154464722,-17.88,-15.4103202819824,0.567821681499481
156,-18.2203361344538,-16.4266910552979,0.850796580314636,-13.7642016806723,-15.3828811645508,0.612294733524323
157,-16.3631067961165,-16.447380065918,0.851733267307281,-15.4299029126214,-15.3806800842285,0.69874894618988
158,-8.09112426035503,-16.423454284668,0.0405184403061867,-20.712899408284,-15.3998327255249,0.69017231464386
159,-13.1874556213018,-16.4183826446533,0.938609421253204,-16.6639053254438,-15.3580436706543,0.637565612792969
160,-6.69130434782609,-16.3503513336182,0.8858323097229,-13.6260869565217,-15.3269939422607,0.498777717351913
161,-22.0236363636364,-16.3643760681152,0.959770560264587,-20.8527272727273,-15.4158792495728,0.471159517765045
162,-17.84,-16.3641090393066,0.978589475154877,-15.76,-15.4370584487915,0.527471423149109
163,-13.68,-16.3581218719482,0.875764071941376,-19.9445901639344,-15.4352331161499,0.635688722133636
164,-10.6873469387755,-16.3163833618164,1.10310339927673,-15.8489795918367,-15.4263782501221,0.666462540626526
165,-15.3969426751592,-16.3056297302246,1.02759516239166,-14.8636942675159,-15.415846824646,0.62522828578949
166,-9.15454545454546,-16.2449226379395,0.612310409545898,-14.5290909090909,-15.4056215286255,0.0559844970703125
167,-15.84,-16.241024017334,1.16839039325714,-13.8,-15.4192218780518,0.630043864250183
168,-12.8933333333333,-16.2338314056396,1.13124227523804,-20.7666666666667,-15.4346008300781,0.750858426094055
169,-13.76,-16.227123260498,0.615252435207367,-13.8740425531915,-15.3849868774414,0.811274468898773
170,-15.84,-16.2307720184326,0.66610199213028,-7.6,-15.3432960510254,0.867026507854462
171,-19.92,-16.2443714141846,0.669993996620178,-18.4790783410138,-15.3606233596802,0.910279810428619
172,-13.139746835443,-16.2502326965332,0.900601744651794,-19.88,-15.3519287109375,-1.42171061038971
173,-19.92,-16.2982559204102,0.998693346977234,-18.1634645669291,-15.408127784729,0.931152760982513
174,-15.88,-16.3150615692139,0.978026628494263,-7.76584269662921,-15.3270998001099,0.967378318309784
175,-11.76,-16.2653846740723,0.358361333608627,-18.1166863905325,-15.3629493713379,0.977951526641846
176,-12.465,-16.2156829833984,1.04651820659637,-15.84,-15.4176139831543,0.920150399208069
177,-14.5596261682243,-16.1796817779541,-0.182681202888489,-19.92,-15.4440574645996,0.771905660629272
178,-15.0889473684211,-16.2157421112061,1.02867555618286,-14.84,-15.4237909317017,0.587713539600372
179,-13.8108695652174,-16.2166137695312,0.782062172889709,-11.4621739130435,-15.4370050430298,0.655768513679504
180,-19.0190374331551,-16.2442245483398,0.849258065223694,-15.4391443850267,-15.4469451904297,0.784844100475311
181,-19.6628571428571,-16.2935161590576,0.370923578739166,-21.1549206349206,-15.4792451858521,0.738027513027191
182,-13.8,-16.2627391815186,0.692017555236816,-19.92,-15.4884080886841,0.252229034900665
183,-18.6184615384615,-16.2676620483398,0.875832855701447,-8.41846153846154,-15.4750356674194,0.487946927547455
184,-9.56,-16.2228202819824,1.21415650844574,-13.8,-15.4702930450439,0.688756227493286
185,-18.2629787234043,-16.236421585083,0.96324211359024,-18.2629787234043,-15.4724721908569,0.876727819442749
186,-13.8,-16.2264270782471,1.16209101676941,-17.88,-15.4956216812134,0.911895096302032
187,-9.6,-16.1653537750244,1.14621257781982,-11.76,-15.4409551620483,0.916193127632141
188,-14.9926345609065,-16.1683807373047,1.19355082511902,-11.4781869688385,-15.4469938278198,0.998026788234711
189,-17.3421459227468,-16.191873550415,0.521460354328156,-11.8030901287554,-15.3792810440063,0.953010320663452
190,-17.88,-16.1854438781738,1.2236453294754,-11.76,-15.2976808547974,0.760477662086487
191,-18.4160869565217,-16.2164840698242,1.15211653709412,-9.89739130434783,-15.2583303451538,0.716494143009186
192,-15.1981481481481,-16.193489074707,0.849939107894897,-21.96,-15.3213233947754,0.796085357666016
193,-14.5356232686981,-16.1817779541016,0.862731873989105,-18.295512465374,-15.3324270248413,0.705138564109802
194,-9.53674418604651,-16.1261558532715,-0.336100935935974,-11.8,-15.3329610824585,0.499500662088394
195,-20.4739906103286,-16.1431827545166,0.262563437223434,-18.8095774647887,-15.3474922180176,0.667793214321136
196,-19.5422807017544,-16.1610260009766,-0.351204216480255,-10.7945614035088,-15.3310594558716,0.482390254735947
197,-7.72,-16.1095867156982,1.33950197696686,-11.72,-15.3161849975586,0.352885216474533
198,-12.7496774193548,-16.1028518676758,0.195638984441757,-18.8412903225806,-15.3339433670044,0.478843629360199
199,-19.92,-16.1849842071533,1.01515030860901,-16.9353711790393,-15.3548450469971,0.530825018882751
200,-11.8988235294118,-16.1778430938721,1.40096998214722,-15.9929411764706,-15.3150653839111,0.469388723373413
201,-18.4526086956522,-16.1662254333496,0.97161453962326,-18.8473913043478,-15.3645429611206,0.320068717002869
202,-18.6257142857143,-16.1471099853516,0.8048335313797,-9.97071428571428,-15.2870149612427,0.322015136480331
203,-12.0421476510067,-16.0809898376465,1.09022879600525,-14.4042953020134,-15.2954072952271,0.469708383083344
204,-16.6870588235294,-16.0711269378662,0.97979336977005,-17.92,-15.3170967102051,0.55129998922348
205,-12.3225396825397,-16.056884765625,0.721351504325867,-9.40952380952381,-15.2939386367798,0.688968479633331
206,-7.90808510638298,-16.0152053833008,1.13979315757751,-12.47,-15.2543859481812,0.814771115779877
207,-18.8194082840237,-16.0027256011963,1.17927408218384,-13.989349112426,-15.2427930831909,0.722245991230011
208,-13.76,-15.9752607345581,0.69427615404129,-15.72,-15.2694597244263,0.555586934089661
209,-14.9218705035971,-15.9356603622437,1.13641440868378,-20.9020143884892,-15.3303565979004,0.622423589229584
210,-15.9796116504854,-15.9671630859375,0.541414022445679,-17.88,-15.3553256988525,0.765174627304077
211,-9.64,-15.8850288391113,0.75616866350174,-13.84,-15.3182163238525,0.827818512916565
212,-14.1388546255507,-15.8537731170654,1.20110392570496,-19.96,-15.3294839859009,0.840726673603058
213,-8.3029702970297,-15.7760591506958,1.17073607444763,-14.750099009901,-15.3547735214233,0.763338148593903
214,-17.88,-15.7624607086182,1.04282379150391,-11.72,-15.3409080505371,0.587213337421417
215,-16.5301587301587,-15.8054752349854,0.307248383760452,-14.3949206349206,-15.3454065322876,0.596727728843689
216,-10.1195580110497,-15.7577152252197,1.04190325737,-22,-15.3870048522949,0.632151544094086
217,-12.1284210526316,-15.7332353591919,0.234224170446396,-15.1689473684211,-15.3961324691772,-0.671718120574951
218,-16.7257142857143,-15.7618227005005,0.937877774238586,-16.4971428571429,-15.4281768798828,0.582258403301239
219,-18.9577777777778,-15.7835693359375,0.620212435722351,-19.4288888888889,-15.4675102233887,0.688012957572937
220,-16.2221052631579,-15.7805614471436,0.618660569190979,-14.3723684210526,-15.4683723449707,0.762671649456024
221,-16.2517647058824,-15.742506980896,0.787121415138245,-14.0870588235294,-15.4430856704712,0.739178955554962
222,-14.675,-15.7239208221436,0.599788844585419,-13.4626086956522,-15.4616613388062,0.595342516899109
223,-15.1134806629834,-15.6885070800781,1.38019120693207,-12.4700552486188,-15.4561910629272,0.459048420190811
224,-12.9888172043011,-15.6617059707642,0.941631555557251,-14.0718279569892,-15.4655904769897,0.470350712537766
225,-16.2255421686747,-15.6590595245361,0.658598184585571,-19.92,-15.5068101882935,0.4046650826931
226,-18.1787012987013,-15.6981801986694,0.845033168792725,-16.1516883116883,-15.4680871963501,0.170937463641167
227,-16.2324050632911,-15.7037143707275,0.21003346145153,-15.76,-15.4490547180176,-0.542734324932098
228,-17.88,-15.6901140213013,0.87996232509613,-13.76,-15.4487886428833,0.454408317804337
229,-14.488323699422,-15.6663284301758,0.688468217849731,-14.1819653179191,-15.454758644104,0.690704345703125
230,-18.9923595505618,-15.7108240127563,0.884522616863251,-14.238202247191,-15.4524917602539,0.798352181911469
231,-18.4914285714286,-15.698447227478,0.0395951792597771,-17.1896103896104,-15.4769926071167,0.81953090429306
232,-19.92,-15.76025390625,0.855897426605225,-11.68,-15.4446439743042,0.820172309875488
233,-6.105,-15.691725730896,0.142522037029266,-11.33625,-15.4023246765137,0.796659052371979
234,-17.4247953216374,-15.6855487823486,1.12954783439636,-12.0582456140351,-15.35671043396,1.08118653297424
235,-13.76,-15.7130146026611,1.19863212108612,-12.674213836478,-15.3764047622681,0.791382730007172
236,-15.84,-15.672215461731,1.10802578926086,-14.9052631578947,-15.3241605758667,0.60486102104187
237,-18.7001219512195,-15.7127475738525,0.369600117206573,-18.409756097561,-15.3133478164673,0.822641432285309
238,-11.76,-15.6959991455078,0.897092223167419,-7.52,-15.2748146057129,0.860165774822235
239,-12.6357763975155,-15.6335382461548,1.39349019527435,-24,-15.3251819610596,0.951310336589813
240,-15.84,-15.6196708679199,0.878874123096466,-14.9369863013699,-15.3268003463745,-2.18537926673889
241,-14.9925581395349,-15.6095275878906,0.438711494207382,-16.4821705426357,-15.2994985580444,0.826249003410339
242,-22.2513385826772,-15.632848739624,0.647147595882416,-13.76,-15.2980632781982,0.654837787151337
243,-12.5499099099099,-15.610915184021,0.166073903441429,-20.2533333333333,-15.3535413742065,0.549299120903015
244,-13.76,-15.5647592544556,1.25486862659454,-11.68,-15.3204536437988,0.536572873592377
245,-17.88,-15.5577116012573,0.390363931655884,-12.4296774193548,-15.3615350723267,0.612940609455109
246,-11.36,-15.5006446838379,-0.101078629493713,-14.0934131736527,-15.3909587860107,-1.6708722114563
247,-15.88,-15.4817934036255,0.746918797492981,-13.72,-15.401159286499,0.732569456100464
248,-10.514213836478,-15.4017639160156,0.937866508960724,-9.57433962264151,-15.3467206954956,0.85915619134903
249,-19.92,-15.4171257019043,1.1691974401474,-15.84,-15.3597440719604,0.926312744617462
250,-12.260178041543,-15.35227394104,1.10095322132111,-16.2376261127596,-15.3670244216919,0.871407508850098
251,-14.3612658227848,-15.311619758606,1.06132555007935,-13.4329113924051,-15.3474235534668,0.809723258018494
252,-18.5615642458101,-15.3300313949585,0.9403036236763,-15.8911731843575,-15.3752307891846,0.799513757228851
253,-14.3428220858896,-15.3365383148193,0.843523383140564,-15.8,-15.3920202255249,0.776432633399963
254,-17.4451612903226,-15.3368558883667,0.269017696380615,-13.0696774193548,-15.4098653793335,-1.00284731388092
255,-15.0873563218391,-15.370566368103,0.859551012516022,-16.9549425287356,-15.4034309387207,0.663101196289062
256,-14.1752046783626,-15.3186683654785,0.921170771121979,-8.48888888888889,-15.3674774169922,0.696970343589783
257,-20.7861710037175,-15.3617935180664,1.01382982730865,-14.1428996282528,-15.3862333297729,0.623922228813171
258,-15.84,-15.3753938674927,0.955816805362701,-18.5249704142012,-15.3905334472656,0.68504410982132
259,-17.88,-15.3568363189697,0.990823745727539,-9.64,-15.3426952362061,0.686208307743073
260,-19.92,-15.4063749313354,1.04722452163696,-11.9089156626506,-15.3407716751099,0.749689936637878
261,-16.4776811594203,-15.3698272705078,0.693295300006866,-7.53797101449275,-15.2720899581909,0.821459114551544
262,-21.96,-15.4204788208008,0.903205156326294,-14.1204761904762,-15.2997913360596,-3.86071252822876
263,-11.72,-15.3386135101318,0.805899560451508,-20.7996296296296,-15.3068752288818,0.935387909412384
264,-15.84,-15.2955207824707,0.923587262630463,-11.76,-15.2700910568237,0.957807838916779
265,-7.04837209302326,-15.2446813583374,1.12363350391388,-10.7302325581395,-15.2176399230957,0.806063115596771
266,-16.3314285714286,-15.2215938568115,0.965134978294373,-18.4485714285714,-15.2043151855469,0.786343634128571
267,-16.2431413612565,-15.2104148864746,1.11125290393829,-6.36858638743455,-15.1963701248169,-3.11019611358643
268,-12.4229702970297,-15.22287940979,1.1065388917923,-12.229900990099,-15.1720504760742,0.779980659484863
269,-17.88,-15.2537174224854,0.823822736740112,-16.960621761658,-15.1715154647827,0.60836786031723
270,-7.81978021978022,-15.1715726852417,-0.450185209512711,-16.5103296703297,-15.2079296112061,-2.2944495677948
271,-14.26,-15.1450128555298,1.20257806777954,-16.065,-15.2451200485229,0.345423758029938
272,-11.68,-15.1039457321167,1.18620681762695,-19.92,-15.2941808700562,0.378835558891296
273,-13.72,-15.1039457321167,1.25355458259583,-11.72,-15.2761850357056,0.50272935628891
274,-18.2227230046948,-15.0926303863525,1.15221524238586,-18.0912676056338,-15.2865381240845,0.580911695957184
275,-18.9482593856655,-15.1173601150513,0.0601679086685181,-15.4065529010239,-15.2726774215698,-2.19658064842224
276,-14.585046728972,-15.122594833374,0.838065803050995,-18.3259813084112,-15.2754831314087,-1.92214560508728
277,-9.29964912280702,-15.1339254379272,0.774872362613678,-12.3017543859649,-15.2924280166626,0.366500288248062
278,-13.8033333333333,-15.1253967285156,0.766327619552612,-14.9041666666667,-15.2846536636353,0.287247657775879
279,-12.9529004329004,-15.1301908493042,1.0473690032959,-18.4893506493506,-15.3203468322754,0.315738916397095
280,-18.4958536585366,-15.1206970214844,1.08218777179718,-18.4958536585366,-15.3698205947876,0.3504419028759
281,-18.9896551724138,-15.1225328445435,0.38932341337204,-18.1989655172414,-15.4034605026245,0.364459484815598
282,-15.8,-15.1086654663086,0.941759645938873,-10.2643037974684,-15.3118877410889,0.297023117542267
283,-10.1421645021645,-15.0967378616333,1.12623596191406,-16.818354978355,-15.3263072967529,0.259944885969162
284,-13.4359090909091,-15.0673799514771,1.2099711894989,-15.8113636363636,-15.3261165618896,0.250984668731689
285,-16.8546341463415,-15.052170753479,0.963979363441467,-24,-15.3669176101685,0.250444561243057
286,-15.8,-15.0519046783447,1.02539098262787,-14.2375,-15.3559665679932,0.200975641608238
287,-14.4658823529412,-15.0411243438721,0.889437198638916,-16.4192156862745,-15.3492403030396,0.126832574605942
288,-15.84,-15.0685920715332,0.874087333679199,-5.56,-15.2812404632568,0.177114978432655
289,-20.5346341463415,-15.1255598068237,1.17060899734497,-18.8751219512195,-15.3476467132568,0.514693200588226
290,-11.9868329177057,-15.069317817688,1.16229009628296,-17.4084788029925,-15.3636751174927,0.497199386358261
291,-10.3790909090909,-15.0562219619751,-0.45598977804184,-11.8554545454545,-15.3306798934937,-1.50580477714539
292,-14.8509090909091,-15.0362939834595,1.19343781471252,-8.65090909090909,-15.2930469512939,0.263163149356842
293,-17.5067669172932,-15.0476722717285,1.05900228023529,-15.8,-15.320779800415,0.423425734043121
294,-16.9136363636364,-15.0681638717651,0.937300860881805,-4.35363636363636,-15.2034034729004,0.413106501102448
295,-16.4100483091787,-15.0716962814331,0.924290418624878,-18.6432850241546,-15.1920251846313,0.170362502336502
296,-16.5305936073059,-15.0968341827393,1.06338834762573,-17.92,-15.157675743103,-0.0311546735465527
297,-14.563621399177,-15.1368265151978,0.774215817451477,-14.5860082304527,-15.14914894104,-0.186322450637817
298,-15.0727272727273,-15.1417188644409,0.685260772705078,-9.31425837320574,-15.0769691467285,-0.250472545623779
299,-14.8797771587744,-15.1480903625488,0.781681537628174,-22.96,-15.1158027648926,-0.271219998598099
300,-7.44,-15.1192121505737,1.3952956199646,-13.72,-15.0960578918457,-0.0927649959921837
301,-11.0248275862069,-15.0601787567139,1.14609253406525,-20.6786206896552,-15.1395149230957,0.120202079415321
302,-20.7645378151261,-15.0687303543091,1.22496819496155,-10.7490756302521,-15.1383695602417,0.368215084075928
303,-17.2564588528678,-15.0907325744629,1.10488867759705,-20.3515211970075,-15.1587610244751,0.270643830299377
304,-10.652602739726,-15.0255012512207,-0.0584795475006104,-16.0043835616438,-15.1190557479858,0.280551850795746
305,-15.84,-15.0255012512207,1.15240752696991,-15.8926315789474,-15.1058073043823,0.178862169384956
306,-16.2842767295597,-15.0125942230225,1.00241053104401,-19.88,-15.1465787887573,0.119103319942951
307,-9.03877133105802,-14.9637660980225,-0.0398147106170654,-12.7721501706485,-15.1288604736328,-2.32659602165222
308,-10.6826993865031,-14.9810419082642,0.956879496574402,-16.5852760736196,-15.1013441085815,0.0766303762793541
309,-13.72,-14.9845933914185,1.15908098220825,-12.3098039215686,-15.0723180770874,0.103413157165051
310,-8.66388888888889,-14.9977445602417,1.18902611732483,-10.8125925925926,-15.0535612106323,0.126195728778839
311,-9.56,-14.9146518707275,1.17893016338348,-15.84,-15.0201416015625,0.2192163169384
312,-13.0112621359223,-14.8824605941772,1.15180504322052,-11.6654368932039,-14.992844581604,0.34692057967186
313,-12.9034319526627,-14.8772850036621,1.13773775100708,-24,-15.0198812484741,0.299097687005997
314,-20.3255913978495,-14.9415397644043,1.10681509971619,-24,-15.0742216110229,0.068998672068119
315,-15.8165745856354,-14.9443359375,0.925714254379272,-13.8165745856354,-15.0672416687012,-0.269865214824677
316,-17.0874033149171,-14.9972229003906,0.652604699134827,-13.3277348066298,-15.0592317581177,-0.170603096485138
317,-15.9138613861386,-14.9977149963379,0.685399293899536,-17.92,-15.0866975784302,0.17110376060009
318,-9.68,-14.9762926101685,0.66731184720993,-11.76,-15.0266532897949,0.301107197999954
319,-18.614358974359,-15.0086555480957,-0.548117578029633,-16.2512820512821,-15.0425033569336,0.357125520706177
320,-16.4309090909091,-15.0125942230225,-0.161388278007507,-6.25909090909091,-15.0335626602173,0.472106724977493
321,-14.4673170731707,-14.9762420654297,0.962263882160187,-20.6663414634146,-15.0481443405151,0.580944776535034
322,-16.84,-15.0009117126465,0.916594088077545,-14.8,-15.0142774581909,0.611626505851746
323,-15.0231578947368,-14.9682645797729,1.02578592300415,-15.9076691729323,-14.9992380142212,0.572287738323212
324,-12.9751955307263,-14.948899269104,1.1093316078186,-11.9946368715084,-15.0274314880371,0.394226610660553
325,-17.9550387596899,-14.9902000427246,1.02534174919128,-17.3826356589147,-15.0225391387939,0.158389732241631
326,-18.6372815533981,-15.0313491821289,0.902249157428741,-13.9238834951456,-15.0097627639771,0.113149553537369
327,-10.4501587301587,-15.0039520263672,0.945548117160797,-13.5483597883598,-14.96728515625,0.158747777342796
328,-11.52,-14.9801597595215,0.948112428188324,-13.8978260869565,-14.9610042572021,0.0924492254853249
329,-13.8,-14.9800882339478,0.790208220481873,-13.8,-14.9765901565552,0.145812496542931
330,-9.14545454545454,-14.9142627716064,1.15686225891113,-16.7707359307359,-14.9854669570923,0.383945435285568
331,-12.5861417322835,-14.8670845031738,1.13370478153229,-14.6025196850394,-14.9417858123779,0.475787609815598
332,-12.0933333333333,-14.8557081222534,1.11054694652557,-18.63,-14.9331855773926,0.281903207302094
333,-5.52,-14.7683839797974,0.961989343166351,-9.56,-14.9407939910889,-0.0107847973704338
334,-17.92,-14.8241176605225,0.825413227081299,-14.2092827004219,-14.9435224533081,-1.94858515262604
335,-10.6332710280374,-14.7732515335083,1.02747440338135,-12.6665420560748,-14.906213760376,0.0598567053675652
336,-16.7602127659574,-14.792986869812,0.714664578437805,-16.7336170212766,-14.8985710144043,-0.0707546919584274
337,-19.1447619047619,-14.8566198348999,0.344800591468811,-11.1352380952381,-14.8944063186646,-0.0312150716781616
338,-7.6,-14.8073358535767,0.590535521507263,-15.76,-14.9229526519775,0.132713779807091
339,-8.81808219178082,-14.7505073547363,1.00128626823425,-18.4188127853881,-14.9670572280884,0.315354496240616
340,-9.12387096774194,-14.6921339035034,0.073753297328949,-9.28,-14.9505243301392,-1.44477272033691
341,-8.02172106824926,-14.622838973999,1.13014698028564,-13.7719881305638,-14.976354598999,0.407230496406555
342,-13.8886746987952,-14.6141080856323,1.07705473899841,-11.72,-14.9080877304077,0.513381063938141
343,-13.1278947368421,-14.6047229766846,-0.0798449516296387,-7.53421052631579,-14.8363456726074,0.727278053760529
344,-18.2092682926829,-14.6625394821167,0.766654253005981,-15.965,-14.8641128540039,0.577067255973816
345,-13.76,-14.6177797317505,0.893488764762878,-19.92,-14.8715152740479,0.610868453979492
346,-16.8763636363636,-14.6000061035156,1.04939556121826,-16.5036363636364,-14.9095764160156,0.663526296615601
347,-17.2714285714286,-14.6636848449707,0.192415535449982,-11.6828571428571,-14.9093294143677,0.647480726242065
348,-16.3393258426966,-14.6876134872437,0.940872430801392,-12.9159550561798,-14.8698272705078,0.485246479511261
349,-19.92,-14.6876134872437,0.729011535644531,-11.68,-14.834792137146,0.403929710388184
350,-14.4481481481481,-14.7046089172363,0.790022552013397,-9.52888888888889,-14.7916975021362,0.592460453510284
351,-16.6914285714286,-14.6928682327271,0.89967679977417,-12.1942857142857,-14.7473421096802,0.788744628429413
352,-16.6181818181818,-14.6794853210449,0.997014105319977,-17.88,-14.8000717163086,0.711367011070251
353,-1.36,-14.6082715988159,1.14058518409729,-5.44,-14.740309715271,0.741695523262024
354,-12.762962962963,-14.5821113586426,1.06634116172791,-16.5837037037037,-14.7313995361328,0.837141454219818
355,-18.3627586206897,-14.6223793029785,0.274479329586029,-20.6987356321839,-14.8066596984863,0.888190031051636
356,-14.6181818181818,-14.6671123504639,-0.47651407122612,-14.5781818181818,-14.8207159042358,-1.14832592010498
357,-16.5647191011236,-14.6520805358887,0.799105644226074,-16.4523595505618,-14.8371353149414,0.7458575963974
358,-15.84,-14.6659469604492,0.902213752269745,-15.8,-14.8376693725586,0.732897400856018
359,-15.9647058823529,-14.6728982925415,0.841122031211853,-10.3011764705882,-14.7669973373413,0.797775983810425
360,-11.72,-14.6445016860962,-0.546199202537537,-17.84,-14.7667303085327,-2.23012948036194
361,-13.3552941176471,-14.6692705154419,0.714546620845795,-15.5835294117647,-14.7783546447754,0.941642642021179
362,-11.68,-14.6528787612915,0.920494258403778,-9.56,-14.709020614624,0.916426539421082
363,-7.52,-14.6476593017578,1.12899672985077,-5.52,-14.6474866867065,1.18581974506378
364,-13.6212875536481,-14.6192674636841,1.16133880615234,-15.8015450643777,-14.6746969223022,1.050412774086
365,-18.0656097560976,-14.6295032501221,1.05709660053253,-15.369756097561,-14.6811962127686,1.08822178840637
366,-14.0770731707317,-14.6558866500854,0.933815836906433,-14.4048780487805,-14.6305618286133,0.980708837509155
367,-13.76,-14.6667642593384,0.801223576068878,-13.68,-14.6206350326538,0.96269428730011
368,-18.0485393258427,-14.6755828857422,0.591558992862701,-18.8238202247191,-14.6361455917358,0.945257365703583
369,-12.75,-14.6341991424561,0.908692955970764,-11.385,-14.58251953125,0.828782737255096
370,-21.535873015873,-14.6696224212646,1.00460743904114,-14.9473015873016,-14.5863523483276,0.733507394790649
371,-9.64,-14.625545501709,-0.595718145370483,-10.4802395209581,-14.5623083114624,0.486407160758972
372,-19.92,-14.6605110168457,0.879898130893707,-15.88,-14.5784244537354,0.48127606511116
373,-15.1164556962025,-14.6605310440063,-0.532393455505371,-13.8951898734177,-14.587926864624,-1.76990079879761
374,-11.8,-14.652606010437,1.0780965089798,-15.88,-14.5999803543091,0.779591262340546
375,-16.5161363636364,-14.6545429229736,1.04399967193604,-12.8336363636364,-14.5527372360229,0.894708931446075
376,-13.76,-14.6250848770142,0.959084451198578,-3.48,-14.4682588577271,0.996405482292175
377,-10.1365217391304,-14.5844469070435,0.966693997383118,-16.0791304347826,-14.4703874588013,1.09110176563263
378,-22.6809302325581,-14.6164531707764,0.802877247333527,-17.84,-14.4975881576538,0.823444366455078
379,-22.8894117647059,-14.6724605560303,0.946881830692291,-14.8423529411765,-14.501989364624,0.169702425599098
380,-21.96,-14.6922445297241,-0.137557029724121,-14.1631413612565,-14.5014896392822,-1.3331446647644
381,-13.8,-14.6609668731689,0.792337894439697,-11.72,-14.4650239944458,-0.0337944179773331
382,-16.3957446808511,-14.63747215271,0.94351452589035,-16.3957446808511,-14.4964628219604,8.54665660858154
383,-11.3031884057971,-14.6721258163452,1.09695053100586,-16.5632850241546,-14.5313100814819,0.944320321083069
384,-15.8,-14.6612939834595,1.15325927734375,-13.68,-14.5421209335327,0.410832643508911
385,-14.8072483221477,-14.6682767868042,1.13962602615356,-13.7463087248322,-14.5492677688599,0.536990642547607
386,-15.5494736842105,-14.6663398742676,1.00867629051208,-18.6694736842105,-14.5743618011475,0.592602670192719
387,-14.8855813953488,-14.6409101486206,0.881608903408051,-14.1767441860465,-14.546142578125,0.330833315849304
388,-13.72,-14.6539764404297,-0.643952369689941,-13.1745454545455,-14.5838394165039,-0.179221361875534
389,-14.2482840236686,-14.6647262573242,0.940769612789154,-16.2082840236686,-14.5318965911865,-0.381649404764175
390,-13.3281818181818,-14.6479797363281,0.941425740718842,-17.88,-14.5515155792236,-0.327659517526627
391,-16.395023923445,-14.6573305130005,0.661795020103455,-15.244976076555,-14.5432662963867,-0.281127512454987
392,-18.0941176470588,-14.6296157836914,0.885904550552368,-19.8079144385027,-14.5835876464844,-0.266960293054581
393,-7.68,-14.597149848938,0.901436984539032,-7.52,-14.4986982345581,-0.263819128274918
394,-15.7851572327044,-14.6106510162354,0.763897240161896,-17.6553459119497,-14.5385332107544,-0.061334241181612
395,-5.48,-14.5279836654663,0.992717742919922,-11.76,-14.5340690612793,0.143091365695
396,-12.0610138248848,-14.532657623291,0.977586805820465,-17.88,-14.5593128204346,0.189470425248146
397,-7.56,-14.4771909713745,1.04602837562561,-13.8,-14.5598468780518,0.217592760920525
398,-16.2718181818182,-14.5155744552612,1.12331867218018,-16.3572727272727,-14.6050662994385,0.197905987501144
399,-15.84,-14.4883737564087,1.13406682014465,-13.84,-14.5917329788208,0.0838067904114723
400,-4.80967032967033,-14.4387044906616,0.0231108665466309,-14.1595604395604,-14.5778789520264,0.0826101675629616
401,-18.3472897196262,-14.4652767181396,1.15548396110535,-19.96,-14.6213932037354,0.16141502559185
402,-20.1585515320334,-14.4759244918823,1.04257452487946,-15.2586072423398,-14.6171760559082,-0.0709606036543846
403,-13.8487573964497,-14.4726305007935,0.109033942222595,-14.1223668639053,-14.6059913635254,-0.297841310501099
404,-15.84,-14.4619283676147,0.980646848678589,-22.2692105263158,-14.6673221588135,1.95334005355835
405,-16.5971014492754,-14.4719934463501,0.258723258972168,-14.2672463768116,-14.6494045257568,-0.771990895271301
406,-18.8318413597734,-14.5030384063721,1.06835699081421,-16.6158640226629,-14.7035837173462,-0.68680477142334
407,-22.5612658227848,-14.5148735046387,0.987423658370972,-11.9921518987342,-14.689245223999,13.3289127349854
408,-19.92,-14.5420732498169,1.00166654586792,-19.92,-14.6985445022583,0.125086218118668
409,-7.64,-14.4738073348999,1.07661700248718,-15.88,-14.7401447296143,0.854754447937012
410,-10.6133333333333,-14.4117622375488,1.20917320251465,-20.2333333333333,-14.7956409454346,-0.222598284482956
411,-11.740127388535,-14.3801794052124,1.24537193775177,-18.5296815286624,-14.8689212799072,0.574701547622681
412,-18.109349112426,-14.3545083999634,1.03669548034668,-19.92,-14.9075841903687,0.0310172438621521
413,-14.5457142857143,-14.3733463287354,0.985276401042938,-12.6485714285714,-14.8532438278198,-0.404773592948914
414,-12.1193442622951,-14.3485412597656,1.07235085964203,-22.1977049180328,-14.9228286743164,0.13576203584671
415,-11.8289108910891,-14.3804121017456,1.16771864891052,-20.929900990099,-14.9908256530762,-0.498785376548767
416,-15.88,-14.377402305603,1.19285583496094,-19.9821118012422,-15.0010480880737,-0.515604555606842
417,-12.9187772925764,-14.3552389144897,1.22639894485474,-16.2773799126638,-15.0671062469482,-0.50818145275116
418,-12.3214035087719,-14.3545618057251,1.1581939458847,-16.5285964912281,-15.0957651138306,-0.471219033002853
419,-5.56,-14.2724304199219,1.0268532037735,-11.76,-15.0610933303833,-0.481335759162903
420,-12.2452173913043,-14.3019323348999,1.11813497543335,-18.044347826087,-15.0713214874268,-0.355082303285599
421,-11.5124637681159,-14.2836151123047,1.13086402416229,-14.6875362318841,-15.0621385574341,-0.115148678421974
422,-20.7759670781893,-14.344256401062,1.0755158662796,-12.0709465020576,-15.0098114013672,0.0072137238457799
423,-8.44935251798561,-14.309118270874,1.07648873329163,-17.4474820143885,-15.0479946136475,-0.0854621380567551
424,-13.5205633802817,-14.2777700424194,1.14880967140198,-14.666103286385,-15.0251598358154,-0.0637473911046982
425,-18.0331531531532,-14.2716703414917,1.18680882453918,-16.2763963963964,-15.0309600830078,0.016991451382637
426,-14.1387012987013,-14.2686929702759,1.14496028423309,-12.0187012987013,-14.9889097213745,0.118339531123638
427,-13.0364976958525,-14.293604850769,1.11806058883667,-14.0425806451613,-15.0005159378052,0.220334619283676
428,-5.64,-14.239182472229,1.18269157409668,-7.6,-14.9518213272095,0.836160898208618
429,-16.4669430051813,-14.2626104354858,1.19193208217621,-12.039792746114,-14.9088249206543,0.804700255393982
430,-7.64771929824561,-14.1902894973755,1.21428990364075,-15.8,-14.8908529281616,0.180547669529915
431,-16.5174721189591,-14.1738090515137,1.21684634685516,-17.88,-14.8887252807617,0.884316205978394
432,-14.5,-14.1651420593262,1.21456003189087,-13.02,-14.9070959091187,0.352919369935989
433,-16.5249704142012,-14.2076940536499,1.13602924346924,-17.92,-14.9144420623779,-0.360076636075974
434,-16.9818439716312,-14.2313327789307,0.883479654788971,-18.4048226950355,-14.9317321777344,0.438030481338501
435,-16.1908771929825,-14.2269077301025,0.868270993232727,-10.7782456140351,-14.8435859680176,0.27308914065361
436,-14.9083870967742,-14.2209634780884,1.11581039428711,-15.84,-14.85426902771,0.150224059820175
437,-13.3747126436782,-14.2136898040771,1.10847079753876,-14.6850574712644,-14.8427085876465,0.183904573321342
438,-17.8966666666667,-14.2274007797241,1.05323588848114,-15.3488888888889,-14.9079675674438,0.400727242231369
439,-11.72,-14.1686363220215,1.21071267127991,-11.68,-14.8599996566772,0.458530008792877
440,-16.2619653179191,-14.1971387863159,1.03559029102325,-16.4353757225434,-14.8535127639771,0.766599297523499
441,-16.3760869565217,-14.237117767334,1.07002305984497,-13.9191304347826,-14.8672704696655,0.809562027454376
442,-14.7118942731278,-14.2361917495728,1.09588825702667,-12.6928634361233,-14.8942174911499,0.534075319766998
443,-8.86506024096385,-14.1785802841187,1.064373254776,-17.8920481927711,-14.908164024353,0.371241301298141
444,-9.24975069252078,-14.1274871826172,0.984565198421478,-19.92,-15.0119400024414,0.400257408618927
445,-10.3676995305164,-14.0872049331665,0.974709928035736,-11.68,-14.9655179977417,0.336764931678772
446,-22.7175757575758,-14.1284523010254,1.0047322511673,-22.2890043290043,-14.9946451187134,0.641695022583008
447,-17.9959493670886,-14.1513347625732,1.00480377674103,-19.92,-15.0302047729492,0.355795711278915
448,-15.0979591836735,-14.1515026092529,1.0047972202301,-14.7526530612245,-15.0664596557617,0.343077629804611
449,-13.76,-14.1440362930298,1.02377998828888,-11.8,-14.9920606613159,0.350220263004303
450,-16.1570731707317,-14.2021503448486,1.15624701976776,-13.4029268292683,-14.9899463653564,0.426069408655167
451,-18.6734782608696,-14.2531414031982,1.21121108531952,-9.91521739130435,-14.9181900024414,0.92448902130127
452,-12.886582278481,-14.2006216049194,0.944723963737488,-12.7113924050633,-14.9312725067139,-0.0272887945175171
453,-20.527476635514,-14.2224283218384,1.10376000404358,-12.1805607476636,-14.8768005371094,3.16270995140076
454,-14.884388185654,-14.2506399154663,-0.252594888210297,-14.41805907173,-14.8662242889404,-0.439903855323792
455,-14.3049504950495,-14.2404050827026,0.906881392002106,-16.3049504950495,-14.8689727783203,0.254936963319778
456,-21.96,-14.2782440185547,-0.283629387617111,-15.2814814814815,-14.8383150100708,0.30998107790947
457,-14.2998773006135,-14.3133182525635,0.987072348594666,-19.92,-14.885968208313,0.369852989912033
458,-16.6226086956522,-14.3529186248779,1.16833019256592,-9.43289855072464,-14.8382863998413,0.368389546871185
459,-15.3054347826087,-14.3634881973267,1.06700479984283,-12.9284782608696,-14.8424100875854,0.438233584165573
460,-16.0890173410405,-14.4129886627197,0.888148009777069,-16.4353757225434,-14.8798961639404,0.550624966621399
461,-7.64,-14.4001884460449,0.94786936044693,-9.68,-14.8388299942017,0.656510174274445
462,-7.56,-14.3638458251953,1.29590547084808,-3.2,-14.7823925018311,0.838864207267761
463,-13.76,-14.3695573806763,1.36210477352142,-5.56,-14.6594581604004,1.03423798084259
464,-9.52,-14.2975196838379,1.31753325462341,-18.3273684210526,-14.6216402053833,1.12218904495239
465,-9.7128947368421,-14.2568273544312,1.31759321689606,-13.1476315789474,-14.6171808242798,0.240297913551331
466,-9.44,-14.205846786499,1.36317765712738,-13.76,-14.6200637817383,1.01932966709137
467,-6.73756097560976,-14.1446714401245,1.40471816062927,-19.88,-14.6331300735474,1.0157413482666
468,-4.68048192771084,-14.1113414764404,1.40540635585785,-13.6,-14.6453971862793,1.04193234443665
469,-13.4677777777778,-14.0770292282104,1.35143458843231,-7.48,-14.5869226455688,1.07272958755493
470,-18.7976059850374,-14.0928077697754,1.19440829753876,-14.159102244389,-14.6395902633667,0.995125949382782
471,-7.77333333333334,-14.0481805801392,1.11967313289642,-14.3397101449275,-14.597412109375,0.617872595787048
472,-14.0817747440273,-14.0297918319702,-0.528150022029877,-7.93829351535836,-14.5516662597656,0.00173097848892212
473,-17.6142857142857,-14.0470666885376,1.16909670829773,-14.5142857142857,-14.5423765182495,0.846138894557953
474,-22.7556989247312,-14.1122703552246,1.13509213924408,-18.6787096774194,-14.5869369506836,0.10923832654953
475,-16.4080473372781,-14.1019563674927,1.15122485160828,-17.88,-14.5902538299561,-0.382044792175293
476,-11.7421118012422,-14.0559892654419,1.14191520214081,-15.88,-14.6032943725586,-0.57417231798172
477,-13.76,-14.0780553817749,1.08768451213837,-18.124094488189,-14.6337985992432,0.894652605056763
478,-21.96,-14.1476545333862,1.0419225692749,-18.0085393258427,-14.6612043380737,0.143118381500244
479,-18.6845378151261,-14.1802177429199,0.954912126064301,-20.5964705882353,-14.7065134048462,-0.569240808486938
480,-15.6069306930693,-14.2232942581177,0.731275320053101,-5.99108910891089,-14.6346483230591,0.707518637180328
481,-11.6,-14.2167205810547,0.597591519355774,-13.8,-14.629298210144,0.644125461578369
482,-11.7973684210526,-14.214747428894,0.662119209766388,-12.68,-14.5896320343018,0.67712539434433
483,-13.0226315789474,-14.2647657394409,0.822896897792816,-17.9057894736842,-14.6452722549438,0.108739256858826
484,-17.2308771929825,-14.2601728439331,1.14782118797302,-12.5017543859649,-14.6338882446289,-0.356409788131714
485,-18.3474220963173,-14.311598777771,1.1791650056839,-13.72,-14.6409111022949,0.65714567899704
486,-11.8,-14.2785320281982,1.07545018196106,-9.68,-14.5938863754272,0.575734972953796
487,-20.8413973799127,-14.2898416519165,1.11444771289825,-16.4120524017467,-14.6290655136108,0.77365118265152
488,-16.1203738317757,-14.346643447876,1.00028514862061,-16.1857943925234,-14.6319046020508,0.636906147003174
489,-12.501954887218,-14.3712043762207,0.838297486305237,-12.7175939849624,-14.5938968658447,0.780695676803589
490,-6.9182683982684,-14.3565006256104,0.952475190162659,-10.2893506493507,-14.600625038147,0.746846079826355
491,-15.8,-14.4083557128906,1.11791455745697,-21.96,-14.6552114486694,-0.197223961353302
492,-15.0666666666667,-14.4162092208862,1.06397974491119,-11.68,-14.6549444198608,0.958704352378845
493,-15.4425396825397,-14.4316387176514,1.01368010044098,-22.2374603174603,-14.752965927124,0.848226070404053
494,-14.9204819277108,-14.4097137451172,0.987710237503052,-17.84,-14.7654657363892,0.757924735546112
495,-20.145,-14.4522819519043,1.0165855884552,-17.92,-14.7521324157715,0.479355216026306
496,-15.6,-14.443772315979,1.09692525863647,-16.1388505747126,-14.7497005462646,0.389667719602585
497,-7.48,-14.3784961700439,1.22596323490143,-21.96,-14.8182163238525,0.45162558555603
498,-15.4140350877193,-14.3723278045654,1.41227984428406,-18.7922807017544,-14.8573913574219,0.508037924766541
499,-15.8,-14.3448600769043,0.213295638561249,-18.7602395209581,-14.9045915603638,0.921014547348022
500,-19.92,-14.3813390731812,1.29065346717834,-12.5990243902439,-14.9250602722168,0.350794285535812
501,-14.4872727272727,-14.3666439056396,1.08662176132202,-14.1236363636364,-14.9379215240479,0.25106343626976
502,-16.8111524163569,-14.3679313659668,0.996928155422211,-11.0599256505576,-14.8924541473389,0.255318254232407
503,-17.88,-14.478063583374,1.0058434009552,-18.2519512195122,-14.9778680801392,0.307165771722794
504,-9.68,-14.4575109481812,1.0169802904129,-9.68,-14.9318428039551,0.390882819890976
505,-16.3004545454545,-14.4437627792358,1.22465479373932,-10.6518181818182,-14.8648633956909,0.729492664337158
506,-17.88,-14.4655075073242,1.35155963897705,-19.96,-14.9007425308228,0.954574942588806
507,-14.2985635359116,-14.450400352478,1.19895589351654,-12.8704972375691,-14.8768634796143,0.85958057641983
508,-21.96,-14.4912014007568,0.975995719432831,-14.45,-14.867862701416,0.760206818580627
509,-8.29677419354839,-14.4400815963745,-0.0642395615577698,-13.5858064516129,-14.8897609710693,-0.251891255378723
510,-16.4961038961039,-14.4719219207764,0.968744814395905,-13.76,-14.8625602722168,0.765046834945679
511,-14.6571428571429,-14.4806003570557,1.09953260421753,-11.64,-14.8362712860107,0.691599488258362
512,-14.91625,-14.5021743774414,1.19378507137299,-14.10375,-14.8665628433228,0.546401023864746
513,-8.98082949308756,-14.5119142532349,1.12594878673553,-17.88,-14.9489612579346,0.482880532741547
514,-9.72,-14.4859046936035,1.19378054141998,-9.72,-14.9084177017212,0.490334212779999
515,-15.76,-14.470534324646,1.39289999008179,-16.4647727272727,-14.9157190322876,0.624681890010834
516,-18.5487898089172,-14.5003452301025,1.36349713802338,-12.4379617834395,-14.902606010437,0.692217767238617
517,-11.68,-14.4864797592163,1.22374927997589,-13.72,-14.9028730392456,0.650364100933075
518,-11.5890909090909,-14.443416595459,1.28278994560242,-13.8013852813853,-14.8693895339966,0.630260705947876
519,-13.68,-14.4496173858643,1.2291202545166,-8.42198952879581,-14.8496370315552,0.320300400257111
520,-9.76,-14.371111869812,1.1141003370285,-18.8611320754717,-14.8757295608521,0.472628742456436
521,-11.9552808988764,-14.3865461349487,1.09299683570862,-14.5029213483146,-14.9025468826294,0.483180612325668
522,-17.92,-14.3732128143311,1.07272183895111,-14.7277419354839,-14.8948650360107,0.43060564994812
523,-13.84,-14.3647022247314,1.11441540718079,-5.64,-14.8398294448853,0.497928559780121
524,-11.72,-14.3641700744629,1.26158618927002,-13.68,-14.8251628875732,0.708339095115662
525,-18.7275609756098,-14.3789129257202,1.38187277317047,-18.8220731707317,-14.865086555481,0.829956352710724
526,-17.88,-14.4063787460327,1.02024674415588,-15.7496774193548,-14.9468851089478,0.697879374027252
527,-15.84,-14.4444007873535,1.4430958032608,-11.891455399061,-14.918966293335,-0.0425658822059631
528,-7.76235294117647,-14.3449449539185,1.38026118278503,-11.6,-14.877366065979,0.427565097808838
529,-18.1521518987342,-14.3133640289307,1.28625130653381,-21.96,-14.9248180389404,0.4032843708992
530,-1.16,-14.1746969223022,1.20208477973938,-17.88,-14.9495964050293,0.520988702774048
531,-14.633417721519,-14.1802520751953,1.30658566951752,-7.19088607594937,-14.9194030761719,0.598383963108063
532,-19.92,-14.2037487030029,1.41792130470276,-11.68,-14.8879642486572,0.62860506772995
533,-15.7934928229665,-14.2336835861206,1.23825228214264,-14.3785645933014,-14.8733997344971,0.719289302825928
534,-20.764262295082,-14.2667770385742,1.2030416727066,-16.5295081967213,-14.8923959732056,0.548000574111938
535,-7.48,-14.2179298400879,1.08988332748413,-15.8,-14.9060869216919,-0.566137313842773
536,-18.7221052631579,-14.2390823364258,1.10439026355743,-17.9726315789474,-14.901442527771,0.373444020748138
537,-7.70583333333333,-14.1912174224854,1.25818872451782,-13.6175,-14.8977136611938,2.12449312210083
538,-10.12,-14.1672172546387,1.31792747974396,-11.7771428571429,-14.8883972167969,0.594172120094299
539,-4.07060402684564,-14.099365234375,1.31600844860077,-19.92,-14.913143157959,0.323068261146545
540,-3.48,-14.0337104797363,1.36915457248688,-13.76,-14.8856754302979,0.395380228757858
541,-6.02674556213018,-13.9645881652832,1.41213548183441,-9.75668639053254,-14.8490867614746,0.560307383537292
542,-11.9243835616438,-13.9234571456909,0.953442454338074,-13.9106849315069,-14.8097724914551,0.700298368930817
543,-14.9645454545455,-13.9720211029053,1.34551155567169,-10.1909090909091,-14.8275785446167,0.686007142066956
544,-22.8530817610063,-14.0191402435303,1.31131303310394,-15.8,-14.8152084350586,0.582142055034637
545,-17.92,-14.1020736694336,1.31010723114014,-5.48,-14.773341178894,0.76386159658432
546,-18.18,-14.1428661346436,1.29873847961426,-15.8327272727273,-14.7596940994263,0.914720237255096
547,-13.5719667590028,-14.1829462051392,1.17747914791107,-20.335512465374,-14.8032636642456,0.877347767353058
548,-10.3736312849162,-14.1436243057251,1.04102385044098,-13.3530726256983,-14.7832355499268,0.796648383140564
549,-17.6275647668394,-14.1555423736572,1.17428803443909,-14.5239378238342,-14.7877950668335,-0.263132095336914
550,-15.4990740740741,-14.2268047332764,1.25826191902161,-19.92,-14.8261976242065,0.636823058128357
551,-11.2988976377953,-14.1798143386841,1.32333767414093,-12.6412598425197,-14.7774057388306,0.554942965507507
552,-12.6994871794872,-14.130087852478,0.930209159851074,-19.92,-14.8084831237793,0.566737651824951
553,-13.3637254901961,-14.1268558502197,0.575184404850006,-18.708431372549,-14.8390560150146,0.507592082023621
554,-16.4792694063927,-14.1311168670654,0.637772679328918,-10.8067579908676,-14.7626399993896,0.42600879073143
555,-15.8,-14.1258020401001,0.699495196342468,-9.64,-14.7317924499512,0.346442133188248
556,-21.96,-14.1466569900513,0.872276604175568,-8.32222222222222,-14.6765022277832,0.505988478660583
557,-11.3268449197861,-14.0717611312866,0.927792370319366,-16.2598930481283,-14.7049531936646,0.790034830570221
558,-14.3535135135135,-14.0346517562866,0.773560762405396,-15.4036036036036,-14.674843788147,0.815209805965424
559,-9.68,-14.0482521057129,0.91375458240509,-17.88,-14.6881771087646,0.644391298294067
560,-15.1798058252427,-14.0786943435669,1.25915932655334,-15.88,-14.6591539382935,0.680428624153137
561,-9.68,-14.0649604797363,1.36249661445618,-2.96,-14.5553560256958,0.931639552116394
562,-5.44,-13.9804983139038,1.44662189483643,-7.52,-14.4726886749268,1.40946698188782
563,-18.4630267062315,-14.00661277771,1.54944217205048,-11.086528189911,-14.4622755050659,1.05382871627808
564,-7.81071428571429,-13.9778890609741,1.32213473320007,-16.9692857142857,-14.4274206161499,0.810081303119659
565,-16.2595918367347,-14.0074272155762,1.32561886310577,-15.0048979591837,-14.3879203796387,0.658113777637482
566,-11.9797802197802,-13.9814262390137,-0.363190352916718,-10.7898901098901,-14.326639175415,0.427730202674866
567,-5.52,-13.9320993423462,1.13107669353485,-13.84,-14.3103885650635,0.380041658878326
568,-13.3106607929515,-13.9386949539185,1.35102903842926,-18.4350660792952,-14.3230991363525,0.548712730407715
569,-17.0565217391304,-14.0153388977051,1.49857461452484,-11.9373913043478,-14.3242826461792,0.49733754992485
570,-7.38347417840375,-13.9829263687134,1.52094781398773,-17.84,-14.3229198455811,0.426695048809052
571,-14.5087378640777,-14.0029020309448,1.52278888225555,-9.64,-14.2892694473267,0.369421124458313
572,-9.00186046511628,-13.9244079589844,1.45393621921539,-16.6772093023256,-14.3199768066406,0.750109672546387
573,-8.93268292682927,-13.9276304244995,1.29777336120605,-14.4673170731707,-14.3001108169556,0.578141689300537
574,-11.0822988505747,-13.9113750457764,1.13888323307037,-15.9779310344828,-14.308856010437,0.0457099080085754
575,-3.44,-13.8140869140625,1.19388937950134,-19.88,-14.3328790664673,-0.0790984332561493
576,-18.6310729613734,-13.8440361022949,1.32387781143188,-22,-14.3994226455688,0.198070257902145
577,-13.84,-13.8493928909302,1.31411397457123,-11.76,-14.3842058181763,0.131917729973793
578,-13.72,-13.9032602310181,0.655359327793121,-13.76,-14.425271987915,0.728920042514801
579,-12.9998353909465,-13.8801460266113,1.30409944057465,-14.8534979423868,-14.4440279006958,1.00916504859924
580,-13.76,-13.9208955764771,1.2384957075119,-9.52,-14.4021615982056,1.30310797691345
581,-19.96,-13.9438447952271,1.12812626361847,-11.72,-14.3610954284668,-0.87857985496521
582,-9.98363636363636,-13.9137353897095,0.335505962371826,-18.3436363636364,-14.3965873718262,-0.270132184028625
583,-21.96,-13.949969291687,1.07698130607605,-10.9990697674419,-14.3504476547241,0.369118273258209
584,-14.9018439716312,-13.9361019134521,1.07045769691467,-7.18070921985816,-14.2756204605103,0.849287986755371
585,-11.9245303867403,-13.9076595306396,1.21857047080994,-16.577679558011,-14.314284324646,0.395200043916702
586,-13.84,-13.9005374908447,1.31732785701752,-15.8,-14.3140172958374,1.50427341461182
587,-13.76,-13.9031057357788,1.33685553073883,-9.64,-14.2803812026978,1.32220733165741
588,-12.8776470588235,-13.8696451187134,1.42794489860535,-16.0188235294118,-14.2848472595215,1.23575973510742
589,-15.1273563218391,-13.8923616409302,1.49082589149475,-19.2475862068966,-14.3352975845337,0.182152271270752
590,-19.92,-13.916748046875,1.35797333717346,-8.90588235294118,-14.2851009368896,0.175372242927551
591,-16.6034042553191,-13.9182634353638,0.996638059616089,-14.8212765957447,-14.2911167144775,-0.0159607902169228
592,-10.4655072463768,-13.8899545669556,0.635197341442108,-19.92,-14.3392972946167,-0.293145060539246
593,-10.5230409356725,-13.9010076522827,0.694665312767029,-13.76,-14.3117513656616,-0.196550086140633
594,-15.8,-13.944676399231,1.10269331932068,-19.88,-14.311484336853,0.110015705227852
595,-22.1985515320334,-14.0235481262207,1.02753067016602,-13.7655710306407,-14.3253870010376,0.223060235381126
596,-10.5713043478261,-13.9425735473633,0.667076408863068,-13.9136956521739,-14.269552230835,0.250946193933487
597,-19.92,-13.9554004669189,0.242781326174736,-14.6093525179856,-14.2341470718384,0.030088298022747
598,-11.68,-13.9326143264771,0.242398381233215,0.800000000000001,-14.1304636001587,-0.143217712640762
599,-9.68,-13.9054136276245,0.550906121730804,-14.4190909090909,-14.1479244232178,0.358757525682449
600,-18.1166863905325,-13.918478012085,0.761133849620819,-15.0899408284024,-14.1591711044312,0.641496300697327
601,-16.867027027027,-13.9064359664917,0.691012263298035,-12.9672072072072,-14.179518699646,0.630888700485229
602,-16.4225495750708,-13.9300079345703,1.19169247150421,-20.1607932011331,-14.2291793823242,0.508418619632721
603,-10.6249275362319,-13.8639907836914,0.655853629112244,-10.0278260869565,-14.2148294448853,0.0885229259729385
604,-13.68,-13.8559617996216,0.595031321048737,-18.2482840236686,-14.2403650283813,0.570491909980774
605,-10.0154545454545,-13.8273649215698,0.655470490455627,-18.13,-14.2525291442871,0.215241834521294
606,-9.0544578313253,-13.7413282394409,0.579410433769226,-16.3098795180723,-14.2593879699707,0.273474246263504
607,-16.207816091954,-13.7540473937988,0.605604827404022,-19.96,-14.2596530914307,0.266152292490005
608,-16.6709090909091,-13.7543697357178,0.671244621276855,-12.5509090909091,-14.2804393768311,0.273944795131683
609,-15.84,-13.7579345703125,0.641131222248077,-13.8,-14.2862501144409,0.421503841876984
610,-6.48934782608696,-13.6939353942871,0.814296722412109,-10.8084782608696,-14.2487373352051,0.638297379016876
611,-19.92,-13.775803565979,1.00853943824768,-16.5647191011236,-14.2946357727051,0.689697742462158
612,-19.92,-13.8582029342651,0.897650241851807,-5.36,-14.3090353012085,0.728529632091522
613,-7.77974025974026,-13.8183336257935,0.82096141576767,-4.38181818181818,-14.3011798858643,0.955361783504486
614,-13.9930693069307,-13.8481540679932,0.901765584945679,-15.84,-14.2845983505249,1.01468324661255
615,-11.097358490566,-13.8573846817017,0.889028072357178,-9.76,-14.2620153427124,0.908721089363098
616,-11.76,-13.8728513717651,0.677348673343658,-8.33245508982036,-14.225830078125,0.259845793247223
617,-13.64,-13.9188671112061,0.598995804786682,-21.96,-14.2396974563599,4.33780384063721
618,-19.1326436781609,-14.0152149200439,0.723755657672882,-20.8625287356322,-14.2881155014038,0.769981145858765
619,-5.92280487804878,-13.9649152755737,0.8446324467659,-16.5686585365854,-14.3487062454224,0.586588561534882
620,-6.2472131147541,-13.8812465667725,0.444594204425812,-17.88,-14.3735122680664,0.374193251132965
621,-18.7890909090909,-13.9546842575073,0.7806116938591,-19.92,-14.4107141494751,-0.49627760052681
622,-16.2646575342466,-13.96923828125,0.626919209957123,-18.0443835616438,-14.4780874252319,0.188284441828728
623,-21.96,-13.9982099533081,0.612202346324921,-17.5846808510638,-14.498556137085,0.170684769749641
624,-14.2827272727273,-13.9417219161987,0.403832465410233,-11.76,-14.452431678772,0.202984765172005
625,-12.5377272727273,-13.915919303894,0.307469815015793,-13.1009090909091,-14.4205713272095,0.315918177366257
626,-12.4408510638298,-13.9205780029297,0.49839448928833,-9.74042553191489,-14.3796405792236,0.460693269968033
627,-13.76,-13.9205780029297,0.666964054107666,-9.76,-14.3238801956177,0.492917001247406
628,-17.9092682926829,-13.893572807312,0.841525793075562,-19.92,-14.3366231918335,0.112664192914963
629,-16.9498901098901,-13.8820085525513,0.846996188163757,-15.810989010989,-14.3047199249268,-1.29873180389404
630,-11.36,-13.8536958694458,0.719431817531586,-17.84,-14.3837127685547,0.311078518629074
631,-6.855,-13.8220634460449,0.702772438526154,-12.22,-14.3731784820557,0.331897765398026
632,-10.9388819875776,-13.8163394927979,0.729723513126373,-8.19900621118012,-14.3433055877686,0.441049575805664
633,0.960000000000001,-13.7231216430664,0.818292438983917,-5.52,-14.2607336044312,0.575376689434052
634,-10.4047337278107,-13.6776142120361,1.17406141757965,-8.12497041420118,-14.2315559387207,0.760703086853027
635,-17.88,-13.6744985580444,1.38188064098358,-14.0890043290043,-14.2340173721313,0.828148305416107
636,-15.006511627907,-13.695876121521,1.23648774623871,-18.4427906976744,-14.2924346923828,0.698528110980988
637,-16.7583673469388,-13.6686553955078,1.11908555030823,-14.3428571428571,-14.278639793396,0.565055131912231
638,-13.8617391304348,-13.6535968780518,1.03398728370667,-12.6113043478261,-14.2548093795776,0.498169809579849
639,-20.1056540084388,-13.7042875289917,0.816934645175934,-10.6524894514768,-14.241042137146,0.451911836862564
640,-13.1209216589862,-13.7456378936768,0.522588670253754,-13.9305069124424,-14.2653160095215,0.445417463779449
641,-3.36,-13.6627054214478,0.449212819337845,-9.64,-14.1831836700439,0.613585889339447
642,-12.6282352941176,-13.6464490890503,0.77200448513031,-7.98823529411765,-14.1585712432861,0.649996817111969
643,-9.6,-13.6074991226196,1.03281939029694,-13.84,-14.1025876998901,0.798751890659332
644,-10.1587096774194,-13.5757532119751,1.10925662517548,-11.76,-14.0620555877686,0.864761054515839
645,-9.68,-13.5059871673584,1.14232611656189,-12.6096240601504,-14.0266532897949,0.850179433822632
646,-10.5195180722892,-13.4721164703369,1.11739504337311,-12.6559036144578,-14.0034341812134,0.771929919719696
647,-15.88,-13.5281181335449,1.02234780788422,-14.5826086956522,-13.9542512893677,0.649881064891815
648,-13.1841148325359,-13.5132522583008,0.778711676597595,-16.7186602870813,-13.9404268264771,0.612080752849579
649,-9.64,-13.4721851348877,0.631671667098999,-5.6,-13.8526916503906,0.604189038276672
650,-10.2704761904762,-13.4078550338745,0.787898778915405,-16.5542857142857,-13.8790588378906,0.654651165008545
651,-14.3303896103896,-13.4068088531494,0.911180138587952,-16.7101298701299,-13.8963022232056,0.651580512523651
652,-17.84,-13.413667678833,0.815886795520782,-10.2533333333333,-13.8909244537354,0.543145537376404
653,-10.5074015748031,-13.3645172119141,0.830793440341949,-12.6261417322835,-13.8534212112427,0.471191078424454
654,-11.64,-13.3775835037231,0.900601208209991,-24,-13.9488868713379,0.221919327974319
655,-17.84,-13.3878469467163,0.949620246887207,-5.48,-13.9144077301025,0.00140463095158339
656,-17.5319337016575,-13.3855257034302,0.911668717861176,-14.0072928176796,-13.8747234344482,0.224120125174522
657,-13.0970786516854,-13.377516746521,0.615498423576355,-18.7226966292135,-13.9137382507324,0.448625057935715
658,-13.76,-13.322850227356,0.337599009275436,-17.4317159763314,-13.9336166381836,0.386630147695541
659,-16.9321658986175,-13.3804178237915,0.302698761224747,-8.6,-13.9003772735596,0.309621661901474
660,-15.8,-13.3757781982422,0.38654226064682,-15.8,-13.9139776229858,0.370920687913895
661,-16.0170542635659,-13.3848457336426,0.448038011789322,-16.2973643410853,-13.9450263977051,0.522930800914764
662,-6.27769547325103,-13.3272542953491,0.423433065414429,-16.4284773662551,-13.9605255126953,0.4916932284832
663,-12.1811111111111,-13.3485898971558,0.532229721546173,-14.4266666666667,-13.9375028610229,0.214661106467247
664,-19.88,-13.4163236618042,0.794837415218353,-18.757094972067,-13.9977502822876,0.489856690168381
665,-9.56,-13.3749895095825,0.905383884906769,-15.3136842105263,-13.9900751113892,0.00254890322685242
666,-11.72,-13.3294649124146,0.786382436752319,-3.44,-13.9300880432129,0.8519606590271
667,-12.2762130177515,-13.3334398269653,0.265597581863403,-17.9687573964497,-13.9584150314331,-0.225460559129715
668,-11.0071028037383,-13.3295593261719,1.06532490253448,-16.9334579439252,-13.9792938232422,1.09430742263794
669,-13.9783647798742,-13.3315486907959,1.16740381717682,-6.6274213836478,-13.9673309326172,1.34909915924072
670,-11.76,-13.3448820114136,1.10534083843231,-11.68,-13.9194564819336,1.3761727809906
671,-11.0252173913043,-13.3386812210083,1.13845920562744,-12.8069565217391,-13.9081506729126,1.47426569461823
672,-19.92,-13.352014541626,1.26362121105194,-13.84,-13.9022331237793,1.23389327526093
673,-22.5030267062315,-13.4097690582275,1.23015463352203,-16.7124035608309,-13.9760484695435,1.35842251777649
674,-12.0632804232804,-13.4120569229126,0.958721280097961,-13.72,-13.9763154983521,0.264256864786148
675,-17.88,-13.4064064025879,0.811152458190918,-11.72,-13.9289684295654,1.1510169506073
676,-18.6263414634146,-13.4113817214966,4.93702554702759,-20.2712195121951,-13.9591112136841,1.13349103927612
677,-15.84,-13.4113817214966,0.923903584480286,-7.44,-13.9294366836548,0.839956641197205
678,-11.68,-13.4375,1.05407512187958,-7.72,-13.9035692214966,1.34374713897705
679,-16.1542105263158,-13.4241800308228,1.20306754112244,-11.52,-13.8339681625366,-1.46218490600586
680,-20.5783541147132,-13.553635597229,0.922228276729584,-18.3985037406484,-13.8374252319336,0.696807861328125
681,-12.2923684210526,-13.538028717041,0.46440190076828,-17.84,-13.9084196090698,0.544191598892212
682,-10.3571929824561,-13.4742755889893,0.313251703977585,-16.2785964912281,-13.9390754699707,0.439581573009491
683,-13.64,-13.4599189758301,0.567556321620941,-16.2061971830986,-13.9512596130371,1.46630108356476
684,-14.4660317460317,-13.4179315567017,0.699610412120819,-17.8368253968254,-13.9599752426147,1.22750377655029
685,-18.6267248908297,-13.4922428131104,0.439638882875443,-5.70061135371179,-13.8926467895508,1.45743012428284
686,-17.1525,-13.4817790985107,0.331266939640045,-15.6975,-13.877480506897,0.85613489151001
687,-14.8538289962825,-13.5294322967529,0.141569927334785,-13.3891449814126,-13.8759574890137,1.16649234294891
688,-16.5376744186047,-13.5722169876099,0.264662146568298,-7.76279069767442,-13.849196434021,1.08899807929993
689,-14.1641025641026,-13.6395063400269,0.325505703687668,-15.88,-13.8222627639771,-0.56681752204895
690,-14.4931791907514,-13.712926864624,0.289297163486481,-12.9334104046243,-13.8167514801025,0.891929924488068
691,-13.9494300518135,-13.7657451629639,0.498662441968918,-14.1966839378238,-13.8463506698608,0.845996141433716
692,-16.5841726618705,-13.7968101501465,0.637594997882843,-18.4303597122302,-13.876482963562,0.377573758363724
693,-11.76,-13.775447845459,0.637642025947571,-7.6,-13.8592090606689,1.00425934791565
694,-14.4632258064516,-13.7195148468018,0.876911163330078,-10.5303225806452,-13.8240785598755,0.641450941562653
695,-12.8257894736842,-13.6855535507202,0.960632920265198,-8.36368421052632,-13.8433036804199,2.21489238739014
696,-14.971974522293,-13.6641664505005,0.784010112285614,-13.2458598726115,-13.8260583877563,1.11621785163879
697,-7.32,-13.6224870681763,0.792984187602997,-11.72,-13.7686195373535,1.6071355342865
698,-14.4771428571429,-13.6498441696167,0.991551041603088,-16.2542857142857,-13.7879619598389,0.570515632629395
699,-11.8077192982456,-13.611044883728,1.13899624347687,-18.2952046783626,-13.8131017684937,0.824288666248322
700,-6.31024390243903,-13.5497856140137,1.09525060653687,-11.4224390243902,-13.7564516067505,0.585588216781616
701,-6.4814953271028,-13.5176696777344,1.03103196620941,-8.1596261682243,-13.7265758514404,1.43175888061523
702,-16.5685185185185,-13.5434627532959,1.0299323797226,-13.6151851851852,-13.6845445632935,1.0213360786438
703,-11.9751898734177,-13.5342063903809,0.962039172649384,-6.27341772151899,-13.6016435623169,-0.0349909067153931
704,-13.155,-13.5120439529419,0.807771146297455,-15.315,-13.6316995620728,1.12945151329041
705,-19.88,-13.5392446517944,0.627104103565216,-10.4425196850394,-13.6370487213135,0.514868676662445
706,-7.52,-13.4429769515991,0.577986717224121,-13.76,-13.673300743103,1.12035238742828
707,-11.0868421052632,-13.4413766860962,0.928180456161499,-18.3059649122807,-13.6869401931763,1.0557587146759
708,-10.6219607843137,-13.4165010452271,1.09471189975739,-12.8327450980392,-13.6698017120361,0.828827857971191
709,-12.7503546099291,-13.4369697570801,0.895760536193848,-15.8,-13.6559343338013,1.48516130447388
710,-7.64,-13.3867044448853,0.854626595973969,-15.8,-13.6554002761841,1.41009283065796
711,-13.72,-13.4136381149292,1.10762393474579,-19.92,-13.7684688568115,1.66465258598328
712,-7.52,-13.4275045394897,1.2619720697403,-11.72,-13.7964677810669,1.35383319854736
713,-8.43341772151899,-13.3606405258179,1.34043347835541,-6.85569620253164,-13.7682638168335,1.36942672729492
714,-16.38,-13.4177694320679,1.31547498703003,-6.89126213592233,-13.701075553894,0.880841851234436
715,-15.512688172043,-13.4127902984619,0.988942205905914,-13.7767741935484,-13.692889213562,0.260262310504913
716,-16.9281057268722,-13.445779800415,0.653759598731995,-12.4861674008811,-13.704197883606,0.880746722221375
717,-15.8,-13.5143127441406,0.437575221061707,-14.114606741573,-13.7060270309448,0.706117749214172
718,-8.52296296296296,-13.4823942184448,0.390872657299042,-15.88,-13.6889944076538,0.698467016220093
719,-9.24975609756098,-13.4303503036499,0.524056434631348,-12.2660975609756,-13.6911849975586,1.16138482093811
720,-11.802722513089,-13.4598112106323,0.692893445491791,-8.36586387434555,-13.6280241012573,-0.280851364135742
721,-7.56,-13.4134864807129,0.998358190059662,-7.64,-13.6146907806396,1.3861677646637
722,-16.5986206896552,-13.4641304016113,1.32059526443481,-16.9149425287356,-13.6162757873535,1.2880767583847
723,-8.15157894736842,-13.4589233398438,1.27016389369965,-12.6547368421053,-13.6041927337646,-0.30942291021347
724,-21.96,-13.5314416885376,1.0214341878891,-18.7019178082192,-13.6223516464233,-0.318639427423477
725,-17.88,-13.6277084350586,0.678968846797943,-12.5284848484848,-13.5733413696289,0.0799664482474327
726,-20.6384466019417,-13.6410903930664,0.379746675491333,-14.4869902912621,-13.5232553482056,0.343038350343704
727,-2.69,-13.5667572021484,0.41885507106781,-13.8578260869565,-13.5372400283813,0.464059084653854
728,-5.44,-13.5115575790405,0.728964328765869,-9.68,-13.5100402832031,0.501869380474091
729,-18.6224892703863,-13.5490417480469,1.04726135730743,-18.3864377682403,-13.5335941314697,0.65614640712738
730,-11.840409556314,-13.5362453460693,0.804861903190613,-10.8608873720137,-13.5425329208374,0.507855117321014
731,-10.7687573964497,-13.4749708175659,0.534538269042969,-21.96,-13.6107988357544,0.209828823804855
732,-13.8,-13.500412940979,0.64781528711319,-15.84,-13.5941076278687,0.118414789438248
733,-15.8714285714286,-13.4598217010498,0.865353524684906,-17.9514285714286,-13.6404571533203,0.281431317329407
734,-7.6,-13.4111423492432,0.970596432685852,-9.56,-13.6563196182251,0.430477946996689
735,-16.7130434782609,-13.4430665969849,0.917521297931671,-12.2900483091787,-13.6277351379395,0.479192078113556
736,-18.0071309192201,-13.4708471298218,0.828963696956635,-15.5799442896936,-13.6262674331665,0.490311115980148
737,-7.56,-13.4295129776001,0.735151350498199,-9.76,-13.6270685195923,0.338994652032852
738,-13.76,-13.435396194458,0.761558413505554,-13.7765745856354,-13.6121206283569,0.419976949691772
739,-11.76,-13.4129467010498,0.851228713989258,-18.0959090909091,-13.6044435501099,0.521350860595703
740,-1.32,-13.2889471054077,0.966208457946777,-13.84,-13.6373376846313,0.543177664279938
741,-13.7679144385027,-13.2700443267822,1.22486221790314,-11.5463101604278,-13.6155033111572,0.759363174438477
742,-15.8,-13.305606842041,1.18920540809631,-9.68,-13.5472364425659,0.734439611434937
743,-12.8856441717791,-13.3213577270508,0.875767230987549,-15.88,-13.5613708496094,0.525076627731323
744,-6.78375,-13.2612495422363,0.666203856468201,-14.4925,-13.5254535675049,0.482784569263458
745,-16.377037037037,-13.2224397659302,0.747180163860321,-20.2209259259259,-13.568489074707,0.487228244543076
746,-15.0079207920792,-13.2520170211792,0.885661542415619,-10.6209900990099,-13.546537399292,0.342505723237991
747,-13.2481818181818,-13.2075386047363,0.990924835205078,-16.3627272727273,-13.5582265853882,11.1214561462402
748,-14.3564912280702,-13.225380897522,1.05368864536285,-17.92,-13.6830272674561,0.550389230251312
749,-11.851455399061,-13.2398586273193,0.904138386249542,-13.8,-13.6788997650146,0.434606313705444
750,-13.0177215189873,-13.2058639526367,0.86444503068924,-12.2622784810127,-13.6600475311279,2.98030042648315
751,-13.8,-13.1854181289673,0.960973083972931,-8.29032258064516,-13.6288690567017,0.412757337093353
752,-14.675,-13.1737680435181,0.995598018169403,-9.85543478260869,-13.5601663589478,0.554943799972534
753,-9.56,-13.1666679382324,1.09508037567139,-5.56,-13.5303812026978,0.714506506919861
754,-17.9504347826087,-13.1951379776001,1.17057871818542,-17.92,-13.5281915664673,0.843133211135864
755,-15.8,-13.2337007522583,0.962735891342163,-14.1641025641026,-13.5017528533936,0.815436542034149
756,-19.88,-13.305871963501,0.674801766872406,-19.92,-13.5258207321167,0.425418823957443
757,-14.0360515021459,-13.2913932800293,0.640439450740814,-11.2135622317597,-13.4675102233887,0.271546274423599
758,-12.32,-13.2623872756958,0.658270001411438,-22.7428571428571,-13.535457611084,0.101816780865192
759,-12.6423529411765,-13.2410697937012,0.587991058826447,-16.6988235294118,-13.5547819137573,-0.0847437754273415
760,-9.83371727748691,-13.2633657455444,0.521750688552856,-10.5842931937173,-13.5532875061035,-0.0704827308654785
761,-16.4647727272727,-13.240330696106,0.658716261386871,-14.2318181818182,-13.5377359390259,0.24687272310257
762,-12.5901298701299,-13.1914644241333,0.743476629257202,-9.99168831168831,-13.5686130523682,0.463609129190445
763,-14.7685534591195,-13.2380561828613,0.640825569629669,-13.2145911949686,-13.627498626709,0.48982760310173
764,-11.7696618357488,-13.2232341766357,0.544484853744507,-14.399806763285,-13.6178970336914,0.281353443861008
765,-17.92,-13.2687187194824,0.547084093093872,-10.5855555555556,-13.6234016418457,0.119088493287563
766,-15.84,-13.2959175109863,0.542851865291595,-15.2643697478992,-13.6696138381958,0.241609185934067
767,-14.4654263565891,-13.3014211654663,0.483701646327972,-18.957519379845,-13.6495981216431,0.249781593680382
768,-18.1431578947368,-13.2948246002197,0.438952833414078,-12.5747368421053,-13.5943460464478,0.0638641268014908
769,-14.2546808510638,-13.3503694534302,0.501104891300201,-11.64,-13.561487197876,0.125623673200607
770,-20.67,-13.4465217590332,0.616944134235382,-10.51,-13.5123538970947,0.390185743570328
771,-12.6936842105263,-13.4058866500854,0.619270861148834,-14.0368421052632,-13.4731330871582,0.271536111831665
772,-15.8,-13.4027881622314,0.622885763645172,-9.83392405063291,-13.4183969497681,0.105274125933647
773,-13.8,-13.348388671875,0.754603445529938,-13.76,-13.3928985595703,0.250737756490707
774,-11.76,-13.3315706253052,1.00544476509094,-11.76,-13.3928985595703,0.497675061225891
775,-13.4573271889401,-13.337700843811,1.09529459476471,-10.1129953917051,-13.3729782104492,0.67875212430954
776,-15.3114285714286,-13.3568382263184,0.977489769458771,-13.2,-13.3960428237915,0.647636413574219
777,-3.52,-13.2885713577271,0.88306850194931,-7.64,-13.3819093704224,0.504852473735809
778,-13.76,-13.2609100341797,1.04894471168518,-13.72,-13.340576171875,0.62557327747345
779,-7.08910052910053,-13.1951713562012,1.30776906013489,-10.9898412698413,-13.3084354400635,0.871268510818481
780,-19.92,-13.2522382736206,1.29345607757568,-12.7097674418605,-13.2742338180542,0.857645392417908
781,-9.52,-13.2700052261353,1.06017315387726,0.960000000000001,-13.1863670349121,0.704875349998474
782,-9.84213991769547,-13.2626934051514,1.01707112789154,-16.6559670781893,-13.2427473068237,0.699334383010864
783,-9.64,-13.3333597183228,1.1648291349411,-17.92,-13.3254137039185,0.714033961296082
784,-9.95919540229885,-13.3303890228271,1.25448191165924,-17.92,-13.3907146453857,0.659883141517639
785,-15.5428571428571,-13.3148078918457,1.11353957653046,-14.8603174603175,-13.3958559036255,0.544706344604492
786,-10.5630409356725,-13.2851858139038,0.865779519081116,-9.68,-13.3374376296997,0.267189770936966
787,-7.56,-13.2238626480103,0.905265986919403,-15.84,-13.3474178314209,0.178005620837212
788,-16.7680575539568,-13.2432374954224,1.14037978649139,-16.8831654676259,-13.3758974075317,0.188647300004959
789,-8.74492753623188,-13.1674995422363,1.15547049045563,-6.70492753623188,-13.3495798110962,0.159337297081947
790,-10.1050931677019,-13.1473941802979,1.14871633052826,-16.6757763975155,-13.3678817749023,0.282351940870285
791,-9.68,-13.189528465271,1.17442321777344,-7.64,-13.3545484542847,0.578020572662354
792,-14.3492351274788,-13.2010011672974,1.12390959262848,-13.5192067988669,-13.3914213180542,0.77161717414856
793,-16.2542682926829,-13.2453632354736,0.88925975561142,-20.7801219512195,-13.4376888275146,1.20403599739075
794,-9.68,-13.2421712875366,0.606393992900848,-7.48,-13.4091548919678,0.558633804321289
795,-11.3041584158416,-13.2529993057251,0.639653205871582,-17.92,-13.44455909729,0.526293516159058
796,-12.6514285714286,-13.2672119140625,0.959677994251251,-18.2995918367347,-13.4821825027466,0.464111119508743
797,-10.188085106383,-13.229266166687,1.08913111686707,-12.0578723404255,-13.4653511047363,0.298660725355148
798,-6.18602620087336,-13.1826124191284,1.1932384967804,-11.6487336244541,-13.4315528869629,0.290757685899734
799,-8.53916666666667,-13.1752738952637,1.16798853874207,-11.72,-13.4723520278931,0.380117237567902
800,-8.63560693641618,-13.1643733978271,1.20044362545013,-6.61341040462428,-13.4060792922974,0.468132793903351
801,-8.56735905044511,-13.1259536743164,1.2759165763855,-16.1145400593472,-13.4021091461182,0.62446928024292
802,-18.0731818181818,-13.1275081634521,1.12783539295197,-19.9313636363636,-13.4666290283203,0.621986031532288
803,-9.69978260869565,-13.1221237182617,1.00964987277985,-10.630652173913,-13.4533262252808,0.314031928777695
804,-5.4,-13.0805244445801,0.996570229530334,-19.88,-13.4258594512939,0.0757661685347557
805,-18.3005607476636,-13.0835943222046,1.15900957584381,-14.6011214953271,-13.4866666793823,0.00506896572187543
806,-17.9514285714286,-13.0863914489746,1.28294968605042,-9.98357142857143,-13.4598417282104,0.168206691741943
807,-11.9645454545455,-13.0788412094116,0.910702109336853,-16.3627272727273,-13.4441080093384,0.305297821760178
808,-13.5714754098361,-13.0775842666626,0.767221510410309,-11.9432786885246,-13.4075193405151,51.8699493408203
809,-19.92,-13.0975036621094,0.711241960525513,-11.52,-13.4269857406616,0.386298090219498
810,-5.64,-13.0297708511353,1.45910251140594,-3.48,-13.3448514938354,0.734831571578979
811,-9.56,-12.9867219924927,1.69568061828613,-3.32,-13.258337020874,1.31812906265259
812,-18.7293150684932,-13.0697326660156,1.01506626605988,-9.6,-13.2128133773804,1.08804857730865
813,-15.8,-13.0938587188721,1.53789901733398,-16.5069430051813,-13.2266817092896,1.01936626434326
814,-5.56,-12.9983921051025,1.73277068138123,-9.68,-13.1661682128906,0.916804075241089
815,-15.3419718309859,-13.0369386672974,1.30660080909729,-13.0557746478873,-13.1511144638062,1.06849145889282
816,-13.56,-13.0492057800293,1.41788136959076,-15.8,-13.2335157394409,0.749167561531067
817,-15.2191705069124,-13.0688247680664,1.41109895706177,-16.1948387096774,-13.2216892242432,0.409382849931717
818,-12.3006451612903,-13.0774488449097,1.04642152786255,-4.33548387096774,-13.1377029418945,0.385607719421387
819,-11.0166233766234,-13.0577039718628,1.16562831401825,-13.8519480519481,-13.185866355896,0.385910242795944
820,-5.18842105263158,-13.0138940811157,1.08495199680328,-17.1689473684211,-13.2224588394165,0.153746888041496
821,-13.76,-13.0321254730225,1.15987086296082,-8.36602739726027,-13.192852973938,0.0804587751626968
822,-9.68,-12.9638586044312,1.28684937953949,-21.96,-13.2469863891602,0.644203662872314
823,-18.2100970873786,-12.9352388381958,1.22768938541412,-13.8,-13.2275705337524,15.2639598846436
824,-16.84,-12.9670839309692,1.14432299137115,-18.1603342618384,-13.2571725845337,-0.0142027139663696
825,-21.96,-12.9942846298218,1.03149390220642,-11.72,-13.2571725845337,0.467402905225754
826,-16.6816568047337,-12.9813203811646,1.15615940093994,-12.9699408284024,-13.2084980010986,0.231427356600761
827,-10.9375609756098,-12.948637008667,0.921282410621643,-14.6136585365854,-13.2563219070435,0.163487702608109
828,-17.92,-12.9902372360229,0.555479407310486,-15.0920792079208,-13.3054685592651,0.130786001682281
829,-13.2673913043478,-12.9709911346436,0.94995790719986,-13.2273913043478,-13.3168516159058,-0.189067959785461
830,-12.9927272727273,-12.9204196929932,0.400630503892899,-5.46272727272727,-13.2306127548218,0.64967679977417
831,5.16,-12.8040704727173,1.96139597892761,-3.44,-13.1346130371094,1.14508104324341
832,-11.8,-12.8136901855469,1.86246192455292,-5.56,-13.0631551742554,1.33523750305176
833,-12.3985714285714,-12.8054132461548,1.56598603725433,-10.4409523809524,-13.0247211456299,0.888145208358765
834,-17.84,-12.8279066085815,1.47630763053894,-8.30079295154185,-12.9611473083496,0.669776976108551
835,-7.44,-12.7533283233643,1.46188044548035,-5.52,-12.959942817688,1.38440632820129
836,-17.9628402366864,-12.7587308883667,1.46556746959686,-17.84,-12.9742259979248,0.944586515426636
837,-13.8289655172414,-12.751898765564,1.37607753276825,-8.59402298850575,-12.9422578811646,0.766102433204651
838,-16.7226291079812,-12.7531318664551,0.988835394382477,-7.78779342723004,-12.9424247741699,0.595384180545807
839,-15.0936231884058,-12.7593288421631,0.645465970039368,-7.75869565217392,-12.8882827758789,0.65058422088623
840,-3.48,-12.6859073638916,0.906395614147186,-7.64,-12.8529939651489,1.05115818977356
841,-15.3360598503741,-12.6951513290405,1.30192041397095,-12.6103740648379,-12.8424186706543,0.0400605797767639
842,-17.9569230769231,-12.7043037414551,0.40166562795639,-6.07029585798816,-12.7600183486938,0.397247076034546
843,-10.2629213483146,-12.6943225860596,1.29066395759583,-8.4476404494382,-12.7656688690186,0.519065380096436
844,-15.1614457831325,-12.6989774703979,1.45338940620422,-11.72,-12.7736005783081,0.911163508892059
845,-10.4639024390244,-12.6832304000854,1.25239896774292,-18.7363414634146,-12.8427515029907,-0.27244845032692
846,-16.5315887850467,-12.6936283111572,1.23954939842224,-14.6665420560748,-12.852222442627,0.212609261274338
847,-13.8,-12.7368288040161,1.21847641468048,-16.4893506493506,-12.8840179443359,1.62657916545868
848,-13.865,-12.7327470779419,1.22930765151978,-22.035,-12.9225559234619,12.1753807067871
849,-9.64964539007092,-12.7183599472046,1.20943677425385,-19.92,-12.933388710022,0.8998122215271
850,-18.8083495145631,-12.8016815185547,1.14220380783081,-16.7429126213592,-12.9688587188721,0.4747034907341
851,-14.029349112426,-12.8520002365112,0.982719123363495,-18.3356213017751,-13.0366983413696,0.787982940673828
852,-7.6,-12.7922105789185,0.950011193752289,-17.88,-13.065131187439,1.90175795555115
853,-13.7755414012739,-12.8042125701904,1.13291621208191,-15.7808917197452,-13.128514289856,2.65335273742676
854,-12.6771929824561,-12.8010272979736,1.37197422981262,-13.7326315789474,-13.1179647445679,3.3272225856781
855,-15.8887372013652,-12.7744188308716,0.965851485729218,-17.76,-13.166748046875,3.21077179908752
856,-11.64,-12.8018856048584,1.35988819599152,-13.56,-13.1654138565063,3.01376509666443
857,-12.802905027933,-12.813325881958,1.46018528938293,-17.3986592178771,-13.1593656539917,2.31180262565613
858,-9.72,-12.8073129653931,1.48074543476105,-17.76,-13.192214012146,-46.0068740844727
859,-17.84,-12.8412437438965,1.25527346134186,-16.824126984127,-13.1990413665771,2.27784252166748
860,-15.1414354066986,-12.8912534713745,1.1377010345459,-18.0522488038278,-13.2140560150146,276.711212158203
861,-17.6259668508287,-12.917293548584,1.08329653739929,-13.6455248618785,-13.1722269058228,374.599792480469
862,-9.6,-12.9311599731445,1.09774672985077,-21.96,-13.2404928207397,3.81075859069824
863,-1.4,-12.8842706680298,1.18570125102997,-17.88,-13.3139896392822,-13.7355833053589
864,-18.5580487804878,-12.8987903594971,1.28066003322601,-12.5073170731707,-13.3514289855957,619.011779785156
865,-17.88,-12.9145727157593,1.27738618850708,-18.1370786516854,-13.3804969787598,-22.7070064544678
866,-19.1577777777778,-12.9294366836548,1.16947555541992,-19.92,-13.4300565719604,-62.4573936462402
867,-17.92,-12.9435710906982,0.589812099933624,-16.714213836478,-13.4473867416382,2.72142338752747
868,-14.6391208791209,-12.9843454360962,0.287759602069855,-17.84,-13.4604539871216,798.334899902344
869,-9.68,-12.9872131347656,1.10761749744415,-15.72,-13.4834804534912,71.7528610229492
870,-6.79748031496063,-12.9538459777832,1.39487671852112,-20.7618897637795,-13.5661211013794,2246.7685546875
871,-13.8676691729323,-12.9958963394165,1.25914740562439,-16.8024060150376,-13.6272039413452,33.0910415649414
872,5.36,-12.8495054244995,1.03048527240753,-13.76,-13.6061706542969,2927.83520507812
873,-9.62960784313725,-12.8593587875366,1.30083954334259,-18.5417647058824,-13.6454162597656,-1210.46398925781
874,-9.72,-12.7777585983276,1.52179002761841,-17.84,-13.6396713256836,-870.345397949219
875,-21.96,-12.8049592971802,1.3975031375885,-19.92,-13.6889486312866,-233.71989440918
876,-12.4422222222222,-12.7503175735474,1.24684596061707,-15.587037037037,-13.6962804794312,70.3051147460938
877,-17.84,-12.851318359375,0.915489971637726,-22.4526829268293,-13.7535810470581,-19.0383796691895
878,-16.7538738738739,-12.9267435073853,0.9073765873909,-20.1362162162162,-13.8232879638672,-32.5509796142578
879,-19.9528947368421,-12.9356136322021,0.955220878124237,-20.2292105263158,-13.8355731964111,0.95960521697998
880,-12.9475,-12.9429931640625,1.05180943012238,-8.60875,-13.8205595016479,4.66025972366333
881,3,-12.8512010574341,1.23745465278625,-21.96,-13.8205595016479,5.15633296966553
882,-9.75631901840491,-12.8242435455322,1.51107108592987,-20.800245398773,-13.8536291122437,9362.546875
883,-7.6,-12.7691011428833,1.51027202606201,-21.96,-13.880352973938,5.32975101470947
884,-11.48,-12.7949676513672,1.36918449401855,-19.0234319526627,-13.9434423446655,5.72795104980469
885,-14.3343820224719,-12.779109954834,1.58943855762482,-16.5191011235955,-13.9716358184814,31.2657108306885
886,-12.68,-12.743595123291,1.32173335552216,-19.2329411764706,-13.9959878921509,6.6961612701416
887,-17.552380952381,-12.8102111816406,0.95815771818161,-17.36,-14.0466556549072,7.12369823455811
888,-8.67,-12.7762784957886,0.878871858119965,-19.34,-14.0837430953979,7.53536224365234
889,-13.8,-12.7898778915405,1.01451241970062,-21.96,-14.1095037460327,7.93999862670898
890,-17.84,-12.9000110626221,0.848312020301819,-24,-14.1772375106812,8.39892959594727
891,-11.52,-12.8850240707397,0.809475183486938,-20.8050574712644,-14.2389631271362,8.83602523803711
892,-13.84,-12.8719577789307,0.929294288158417,-17.84,-14.2933645248413,9.24601078033447
893,-15.9958441558442,-12.8926935195923,1.06222152709961,-20.7684848484848,-14.3259534835815,9.66323852539062
894,-18.5341176470588,-12.9710283279419,1.07075417041779,-11.7152941176471,-14.3074378967285,10.0511198043823
895,-14.1817174515235,-12.9563932418823,0.74993222951889,-17.5380609418283,-14.2895526885986,10.4404764175415
896,-1.44,-12.8659410476685,0.634388744831085,-19.92,-14.3515462875366,10.8233261108398
897,-6.51162790697674,-12.8210306167603,1.00233578681946,-12.6223255813953,-14.3266096115112,11.1618747711182
898,-15.9626765799256,-12.8317384719849,1.18346405029297,-17.4691449814126,-14.3236036300659,11.5161190032959
899,-9.14588235294118,-12.8137016296387,0.964504718780518,-15.1647058823529,-14.3327016830444,11.8966569900513
900,-10.7792405063291,-12.7987775802612,0.832533419132233,-20.1436286919831,-14.3852443695068,12.2404251098633
901,-16.207816091954,-12.8148288726807,0.890544593334198,-17.92,-14.4494438171387,12.5518760681152
902,-13.76,-12.8087301254272,0.701844036579132,-11.6933905579399,-14.4616956710815,12.929500579834
903,-11.72,-12.8231296539307,0.737494468688965,-15.84,-14.5302276611328,13.3158302307129
904,-14.4438709677419,-12.7997531890869,0.908711731433868,-19.92,-14.5435609817505,13.6625576019287
905,-17.92,-12.8138856887817,0.803131580352783,-21.96,-14.595534324646,13.9866971969604
906,-10.4465608465608,-12.7509965896606,0.654259145259857,-21.96,-14.6091337203979,14.2356176376343
907,-12.8409756097561,-12.7430286407471,0.802394151687622,-13.300487804878,-14.623046875,14.4643115997314
908,-15.7373371104816,-12.7658109664917,0.960273206233978,-18.3559206798867,-14.5938024520874,14.73033618927
909,-14.1899371069182,-12.7761278152466,0.881679832935333,-13.8,-14.5744762420654,15.0213012695312
910,-14.3393258426966,-12.8061656951904,0.634980976581573,-17.676404494382,-14.6217575073242,15.2692604064941
911,-9.64,-12.760666847229,0.570690870285034,-19.92,-14.6596775054932,15.4864273071289
912,-12.7738248847926,-12.7618913650513,0.895315110683441,-20.5190783410138,-14.7298603057861,15.7905826568604
913,-12.7260975609756,-12.7482767105103,0.993400692939758,-16.3243902439024,-14.7505922317505,16.162467956543
914,-10.0722580645161,-12.7369594573975,0.864339530467987,-20.0941935483871,-14.7885551452637,16.5343952178955
915,-11.6747286821705,-12.6953239440918,1.04781067371368,-14.5262015503876,-14.8148260116577,16.8791942596436
916,-11.8,-12.6683912277222,1.31783044338226,-11.68,-14.7909307479858,17.1843318939209
917,-5.44,-12.6082220077515,1.48481380939484,-15.84,-14.7701463699341,17.449987411499
918,-14.2167441860465,-12.5820455551147,1.56150043010712,-11.793488372093,-14.7649383544922,17.7299098968506
919,-7.06985645933014,-12.5341463088989,1.54585981369019,-24,-14.8473386764526,18.0329608917236
920,-4.40165680473373,-12.4256896972656,1.37681245803833,-15.84,-14.8828725814819,18.3354167938232
921,-7.83649769585253,-12.3933086395264,1.10392546653748,-15.0764976958525,-14.8898029327393,18.6267356872559
922,-9.64,-12.3522424697876,1.18303203582764,-17.92,-14.9437112808228,18.8810367584229
923,-7.56,-12.310643196106,1.44294774532318,-17.88,-14.9711771011353,19.0916938781738
924,-11.0385026737968,-12.305832862854,1.54142487049103,-21.9146524064171,-15.038875579834,19.3610668182373
925,7.16,-12.1683835983276,1.5038697719574,-17.84,-15.090389251709,19.6938648223877
926,-9.11282051282051,-12.1270608901978,1.56646132469177,-17.1948717948718,-15.1170215606689,19.9998168945312
927,-10.5430136986301,-12.1738805770874,1.64178740978241,-17.88,-15.1852884292603,20.2715587615967
928,-5.36,-12.1178798675537,1.68327295780182,-21.96,-15.2402210235596,20.5586357116699
929,-14.7103546099291,-12.1686887741089,1.71298289299011,-20.9696453900709,-15.3067531585693,20.8743553161621
930,-9.30666666666667,-12.0979337692261,1.66877555847168,-11.5966666666667,-15.2993326187134,33.0460968017578
931,-21.0279365079365,-12.1746520996094,1.52380192279816,-12.8926984126984,-15.3916845321655,21.5601081848145
932,-11.8466666666667,-12.1880159378052,1.28932869434357,-14.12,-15.37477684021,21.8933734893799
933,1.42605263157895,-12.1142425537109,1.26301252841949,-21.96,-15.4017105102539,22.2023677825928
934,-14.04125,-12.1414556503296,1.31846857070923,-17.88,-15.4014434814453,22.5142974853516
935,-9.92163742690059,-12.1039810180664,1.21834170818329,-12.1693567251462,-15.3835039138794,22.8261890411377
936,-13.8530612244898,-12.1259145736694,1.13465785980225,-15.84,-15.4245700836182,23.0683269500732
937,-10.3295597484277,-12.1443786621094,1.1328284740448,-19.92,-15.4517707824707,23.2996864318848
938,-6.10620689655172,-12.0733003616333,1.12089669704437,-6.72275862068966,-15.3840351104736,23.5458183288574
939,-8.58702702702703,-12.072247505188,1.22760236263275,-16.5927927927928,-15.4499540328979,24.7837657928467
940,-1.48,-12.0147476196289,1.45030474662781,-21.96,-15.485182762146,40.5680923461914
941,-11.2466272189349,-12.0251922607422,1.64181411266327,-17.88,-15.553448677063,345.199584960938
942,-18.7073563218391,-12.0542449951172,1.58884799480438,-21.96,-15.6097202301025,238.342697143555
943,-18.8250279329609,-12.0713834762573,1.4276442527771,-12.6882681564246,-15.5557746887207,59.0256996154785
944,-12.6409090909091,-12.0911226272583,1.29610657691956,-11.5245454545455,-15.5827379226685,382.714294433594
945,-11.76,-12.0941619873047,1.33485853672028,-17.84,-15.5822057723999,395.323547363281
946,-15.72,-12.1146183013916,1.60266768932343,-19.92,-15.5930080413818,300.223052978516
947,-13.8,-12.1386976242065,1.58895063400269,-13.84,-15.6048889160156,113.551727294922
948,-8.21983193277311,-12.1522569656372,1.67563498020172,-18.3884033613445,-15.6498212814331,77.4566650390625
949,-14.6085106382979,-12.1927194595337,1.59956157207489,-12.8263829787234,-15.6571960449219,66.5122299194336
950,-7.64,-12.1860818862915,1.55518686771393,-17.88,-15.7323064804077,56.934627532959
951,-15.8,-12.234299659729,1.60035252571106,-9.68,-15.6894092559814,49.1900863647461
952,-8.39207920792079,-12.1697587966919,1.60233318805695,-22.4649504950495,-15.706298828125,49.6714935302734
953,-7.71222222222222,-12.1565084457397,1.49205029010773,-20.8255555555556,-15.774266242981,79.0080718994141
954,-16.1387012987013,-12.2281007766724,1.54033839702606,-18.4514285714286,-15.7647409439087,71.4651031494141
955,-19.96,-12.2391633987427,1.55309629440308,-16.3470422535211,-15.7763814926147,71.8630981445312
956,-7.68,-12.1706867218018,1.50015211105347,-11.72,-15.7879571914673,116.19019317627
957,-17.88,-12.2101230621338,1.57743644714355,-15.0059016393443,-15.7789125442505,130.212493896484
958,-14.6048554913295,-12.2170124053955,1.56645286083221,-19.1285549132948,-15.8268146514893,286.658111572266
959,-12.7727019498607,-12.1693639755249,1.49393200874329,-25,-15.9166812896729,988.790771484375
960,-10.0760975609756,-12.1989374160767,1.49955523014069,-17.5229268292683,-16.0102996826172,856.953247070312
961,-19.040621761658,-12.2621412277222,1.51175725460052,-10.3343005181347,-16.0570621490479,589.318725585938
962,-11.2049339207048,-12.2119779586792,1.55599749088287,-20.2019383259912,-16.127742767334,1010.25695800781
963,-13.7739737991266,-12.1984720230103,1.56389498710632,-14.3633187772926,-16.113452911377,1231.24255371094
964,-9.64,-12.2256717681885,1.59588694572449,-19.92,-16.1817188262939,16.0498466491699
965,-15.88,-12.2292594909668,1.64482736587524,-9.28,-16.1565456390381,54.8334503173828
966,-19.2209090909091,-12.2669982910156,1.57087922096252,-14.9536363636364,-16.1509037017822,24.7368011474609
967,-16.475,-12.2753715515137,1.57435536384583,-14.45,-16.1392707824707,24.8788108825684
968,-10.7127272727273,-12.2647848129272,0.569107174873352,-21.96,-16.2567672729492,25.1212520599365
969,-21.96,-12.3377408981323,1.64769542217255,-19.92,-16.2972221374512,25.4278697967529
970,-10.2511111111111,-12.3714904785156,1.71125984191895,-15.6733333333333,-16.2872505187988,25.7668800354004
971,-8.47658703071673,-12.3362693786621,0.568932235240936,-18.4748122866894,-16.354642868042,26.0205535888672
972,-14.1944303797468,-12.3663654327393,0.643280625343323,-13.3404219409283,-16.2971801757812,26.2141284942627
973,-12.8679289940828,-12.3307514190674,1.6211040019989,-21.4421301775148,-16.3481273651123,26.4365291595459
974,-10.1305494505495,-12.286021232605,1.29735589027405,-16.4703296703297,-16.3368606567383,26.6588878631592
975,-12.5089473684211,-12.2230138778687,0.629683136940002,-13.72,-16.3501930236816,26.8762664794922
976,-9.89009708737864,-12.1777372360229,1.64973831176758,-15.7211650485437,-16.3685359954834,27.1249256134033
977,-16.6734782608696,-12.2159767150879,1.69601559638977,-17.6008695652174,-16.3884506225586,27.3628311157227
978,-13.72,-12.1879758834839,1.64116334915161,-16.8869565217391,-16.4004173278809,27.5645484924316
979,-12.9646753246753,-12.1859579086304,1.57115209102631,-20.6775757575758,-16.4500846862793,27.7782135009766
980,-7.99087719298246,-12.1526126861572,1.55432343482971,-12.2247953216374,-16.4951648712158,28.0645370483398
981,-4.89827338129496,-12.2196683883667,1.63742876052856,-13.6512230215827,-16.5632381439209,28.4107971191406
982,1.71568075117371,-12.129563331604,1.73661243915558,-22.3261971830986,-16.675012588501,28.7604751586914
983,-11.68,-12.1247730255127,1.84924626350403,-16.8251485148515,-16.7175750732422,29.0753860473633
984,-12.885,-12.091739654541,1.87352156639099,-18.325,-16.78440284729,29.3848495483398
985,-1.78456140350877,-12.0540370941162,1.77794361114502,-20.5740350877193,-16.8847618103027,29.7144927978516
986,-18.6829739776952,-12.058837890625,1.61997973918915,-19.88,-16.8983631134033,30.0318717956543
987,-15.8,-12.0719776153564,1.64426469802856,-15.9091489361702,-16.9471302032471,30.3535785675049
988,-13.150067114094,-12.0481605529785,1.72273421287537,-20.7790604026846,-17.0337390899658,42.6161575317383
989,-14.4310224438903,-12.0437431335449,1.70037198066711,-24,-17.1420154571533,30.9106884002686
990,-16.4761363636364,-12.1303844451904,1.52095544338226,-16.5047727272727,-17.2011127471924,31.1236972808838
991,-9.71080332409973,-12.0928821563721,1.09143495559692,-19.6002216066482,-17.2477130889893,31.40163230896
992,-13.8,-12.0651702880859,1.08832359313965,-21.96,-17.3536434173584,31.6982765197754
993,-9.88279069767442,-12.0626363754272,0.901172757148743,-13.5339534883721,-17.3875522613525,31.9644317626953
994,-10.5247058823529,-12.0317239761353,1.42863988876343,-24,-17.4694194793701,32.1629600524902
995,-14.169756097561,-12.0564298629761,1.41359984874725,-19.3678048780488,-17.4736270904541,32.3638763427734
996,-16.0574233128834,-12.0532684326172,1.43398404121399,-16.0944785276074,-17.4831485748291,32.5882759094238
997,-8.80691358024692,-12.0199823379517,1.47336483001709,-18.4684773662551,-17.4963436126709,32.798583984375
998,-5.56,-11.9646158218384,1.63409066200256,-19.96,-17.4825096130371,33.020637512207
999,-7.56,-11.95068359375,1.83214807510376,-19.92,-17.4825096130371,33.2637062072754
1000,-10.3185542168675,-11.8940849304199,1.92056155204773,-20.3898795180723,-17.5068225860596,33.5201873779297
1001,-20.3055421686747,-11.9359264373779,1.89657199382782,-18.5185542168675,-17.5080413818359,37.5871772766113
1002,-9.88272251308901,-11.9511442184448,0.868823170661926,-18.6948691099476,-17.5134754180908,33.9053230285645
1003,-8.08941176470588,-11.913236618042,1.72882449626923,-20.1670588235294,-17.5427169799805,34.1324195861816
1004,-18.34,-11.9509887695312,1.88425028324127,-19.1657142857143,-17.5789375305176,34.3924217224121
1005,-12.2914285714286,-11.9270076751709,1.7760978937149,-18.7620779220779,-17.5856170654297,34.705005645752
1006,-7.01112781954887,-11.8961486816406,1.66380429267883,-19.92,-17.6280174255371,35.0095558166504
1007,-6.64658227848101,-11.8551054000854,1.79222249984741,-15.4308860759494,-17.6148986816406,35.2597846984863
1008,-18.8332420091324,-11.9158611297607,1.70388388633728,-16.1139726027397,-17.6039257049561,35.4948692321777
1009,-12.4524550898204,-11.8799448013306,1.5089955329895,-16.7619161676647,-17.6035099029541,35.7111473083496
1010,-16.4230267062315,-11.8884878158569,1.43059194087982,-11.7971513353116,-17.5618095397949,35.9259834289551
1011,-15.84,-11.8765802383423,1.38176310062408,-18.9709090909091,-17.5973129272461,36.1614685058594
1012,-20.1562204724409,-11.9469556808472,1.2655668258667,-17.6274015748031,-17.5684280395508,36.3834838867188
1013,-7.72,-11.989089012146,1.37914061546326,-15.88,-17.5550937652588,36.5535202026367
1014,-16.4770873786408,-11.9752168655396,1.54825127124786,-15.4370873786408,-17.5746250152588,36.7655410766602
1015,-11.6,-11.933349609375,1.60911679267883,-17.9828571428571,-17.5735969543457,37.0015029907227
1016,-17.84,-11.9245643615723,0.560758829116821,-24,-17.6007976531982,37.2249984741211
1017,-16.9265800865801,-11.9179420471191,1.7384021282196,-20.5953246753247,-17.6266708374023,37.4601783752441
1018,-19.9671014492754,-11.9534606933594,1.68182277679443,-16.5176811594203,-17.6178569793701,37.7043762207031
1019,-6.75314814814815,-11.9339485168457,1.76049470901489,-16.1918518518519,-17.6210021972656,37.939037322998
1020,-13.2527102803738,-11.9769830703735,1.80754590034485,-20.1536448598131,-17.6169490814209,38.2023277282715
1021,-11.4004733727811,-11.9605360031128,1.90089094638824,-18.1595266272189,-17.6259956359863,38.4604759216309
1022,-15.8,-12.1016025543213,1.80641579627991,-19.92,-17.6670627593994,38.701000213623
1023,-15.84,-12.1430053710938,1.68496716022491,-16.8627272727273,-17.6558666229248,38.9966773986816
1024,-13.9882352941176,-12.1714601516724,1.75570094585419,-17.4282352941176,-17.6531219482422,39.2886505126953
1025,-5.48,-12.0615930557251,1.54896020889282,-17.88,-17.6395206451416,39.5478096008301
1026,-9.77157894736842,-12.0437889099121,1.62955832481384,-15.0489473684211,-17.6359348297119,39.7872734069824
1027,-8.64658227848101,-11.9825000762939,1.86765110492706,-16.7893670886076,-17.5981788635254,40.0110473632812
1028,-8.14071428571429,-11.9250783920288,1.8997483253479,-20.4021428571429,-17.5999526977539,40.2830047607422
1029,-6.03710144927536,-11.8323059082031,1.55479454994202,-19.92,-17.5978927612305,40.5857696533203
1030,-13.9316402116402,-11.8388671875,1.80744683742523,-14.4349206349206,-17.6367340087891,40.893669128418
1031,-15.1919526627219,-11.960147857666,1.90059852600098,-13.1519526627219,-17.5780124664307,73.7513275146484
1032,-11.9373913043478,-11.9746885299683,1.91866874694824,-17.9330434782609,-17.5588989257812,41.4977378845215
1033,-17.88,-12.0432214736938,1.88332736492157,-17.3495541401274,-17.5281600952148,41.7361106872559
1034,-7.6,-12.0173540115356,0.920339643955231,-14.8232911392405,-17.5001602172852,41.8947830200195
1035,-7.6,-11.9724588394165,1.81486654281616,-17.88,-17.5092334747314,42.023120880127
1036,-16.6201219512195,-11.9987258911133,1.89310431480408,-16.3426829268293,-17.4899635314941,42.222095489502
1037,-6.85806451612903,-11.9274301528931,1.83537375926971,-20.0167741935484,-17.5076770782471,42.377269744873
1038,-10.5540157480315,-11.9399900436401,1.7389851808548,-20.8333858267717,-17.5176315307617,42.5701942443848
1039,2.8,-11.8293237686157,1.83549499511719,-11.72,-17.4493656158447,42.8722534179688
1040,-14.5707182320442,-11.8075284957886,1.97841346263885,-21.96,-17.4357643127441,43.1690483093262
1041,-10.7990476190476,-11.8027219772339,1.14871716499329,-14.002380952381,-17.3904151916504,43.4246559143066
1042,-15.84,-11.8160552978516,1.92755174636841,-14.9629213483146,-17.3712329864502,43.66845703125
1043,-9.70282608695652,-11.7741012573242,1.93231523036957,-19.92,-17.3655757904053,43.9017944335938
1044,-12.3214035087719,-11.732684135437,1.81975865364075,-11.5577192982456,-17.3645267486572,44.1838493347168
1045,-1.4,-11.6474723815918,1.79186284542084,-17.88,-17.3668060302734,44.4671516418457
1046,-7.94509316770186,-11.6908397674561,1.83224010467529,-19.92,-17.3668060302734,44.7174987792969
1047,-7.68,-11.6986293792725,1.90645813941956,-15.8,-17.3879909515381,44.9697494506836
1048,-4.17217391304348,-11.6200256347656,1.91934382915497,-18.9886956521739,-17.398120880127,45.2388763427734
1049,-13.76,-11.6507873535156,1.85504078865051,-20.5523529411765,-17.4340400695801,45.5010833740234
1050,-11.345046728972,-11.654559135437,1.85601818561554,-11.68,-17.377613067627,45.7496910095215
1051,-12.0270422535211,-11.6266870498657,1.86206197738647,-16.8540845070423,-17.3705081939697,45.9854431152344
1052,-11.9354545454545,-11.6145238876343,1.46869516372681,-17.88,-17.411750793457,46.2129745483398
1053,-0.509999999999999,-11.5397901535034,2.03125715255737,-17.76,-17.4245529174805,46.450080871582
1054,-15.84,-11.5490970611572,2.06301808357239,-14.8826993865031,-17.3909702301025,46.646915435791
1055,-6.18128133704735,-11.4708395004272,1.94444572925568,-23.5087465181058,-17.401294708252,46.8306579589844
1056,-13.76,-11.4929285049438,1.72555184364319,-10.4044970414201,-17.3242568969727,47.0107460021973
1057,-13.9828996282528,-11.5005407333374,1.87544977664948,-20.0426765799257,-17.3692054748535,47.2334899902344
1058,-15.84,-11.5012254714966,1.88898110389709,-20.70125,-17.3848419189453,1038.15844726562
1059,-15.8,-11.5119600296021,1.8557710647583,-17.84,-17.4117755889893,47.5255851745605
1060,-2.70794520547945,-11.4344177246094,0.70674079656601,-11.2016438356164,-17.3686103820801,47.6294136047363
1061,-1.28,-11.3786840438843,1.93793559074402,-19.92,-17.3686103820801,47.809440612793
1062,-13.68,-11.3847246170044,1.93070793151855,-22.7911688311688,-17.3837585449219,48.0576210021973
1063,-10.3492134831461,-11.3688802719116,1.84102594852448,-17.88,-17.3941268920898,48.3408660888672
1064,-12.0438095238095,-11.382022857666,1.51790118217468,-17.7765079365079,-17.3786792755127,48.637378692627
1065,-11.8621761658031,-11.3832731246948,1.56827640533447,-17.9473575129534,-17.4014835357666,48.9136657714844
1066,-10.2590909090909,-11.3730001449585,1.51308023929596,-11.4581818181818,-17.4000072479248,49.190299987793
1067,-6.84372093023256,-11.3823585510254,1.42737817764282,-14.4483720930233,-17.3907299041748,49.4715995788574
1068,-13.76,-11.3793134689331,1.55405294895172,-19.92,-17.4449062347412,49.7391166687012
1069,-9.68,-11.3967142105103,1.79540634155273,-15.8,-17.3902378082275,49.9645690917969
1070,-15.3971951219512,-11.4700174331665,1.96953129768372,-13.0343902439024,-17.3715324401855,50.2100639343262
1071,-13.68,-11.5089750289917,1.26680278778076,-20.3518181818182,-17.406702041626,50.4103393554688
1072,-15.8,-11.5500411987305,1.93616878986359,-17.84,-17.4061679840088,50.6157417297363
1073,-8.31310344827586,-11.5550622940063,2.00796246528625,-12.1397701149425,-17.3679008483887,50.822208404541
1074,-17.84,-11.6004056930542,0.885224580764771,-17.2220224719101,-17.3366184234619,51.0111389160156
1075,-10.9685549132948,-11.7212610244751,1.99503648281097,-16.4353757225434,-17.3272533416748,51.2732772827148
1076,0.840000000000001,-11.6549100875854,2.01352071762085,-24,-17.3726196289062,51.5629081726074
1077,-10.8306474820144,-11.6568279266357,1.90497446060181,-8.67064748201439,-17.3112258911133,51.8364295959473
1078,-15.1141361256545,-11.7218551635742,0.624170064926147,-19.92,-17.2976264953613,52.1005668640137
1079,-14.8390476190476,-11.722713470459,1.40136361122131,-15.557619047619,-17.261547088623,52.342456817627
1080,-11.692268907563,-11.7386178970337,1.85875618457794,-20.1594957983193,-17.3186321258545,52.5828170776367
1081,-7.52,-11.6485643386841,1.99473309516907,-17.84,-17.3516120910645,52.8542747497559
1082,-15.84,-11.6751861572266,1.99979746341705,-24,-17.4174785614014,53.1230278015137
1083,-6.58926406926407,-11.7286224365234,1.97534000873566,-19.5283116883117,-17.4012680053711,53.3895378112793
1084,-11.9988888888889,-11.7150068283081,1.87458157539368,-18.7855555555556,-17.4073047637939,53.6421928405762
1085,-6.93558441558442,-11.6950988769531,1.8332005739212,-15.878961038961,-17.432035446167,53.8782653808594
1086,-12.635,-11.6869792938232,1.79153788089752,-14.2616666666667,-17.4215145111084,54.1785926818848
1087,-6.95478260869565,-11.6644811630249,1.78756082057953,-9.77797101449276,-17.3538990020752,54.480354309082
1088,-17.84,-11.7427053451538,1.78980278968811,-13.6629126213592,-17.40016746521,54.7499389648438
1089,-11.72,-11.7635917663574,1.77319526672363,-24,-17.4495487213135,54.9758110046387
1090,-10.3458823529412,-11.8226985931396,1.86284041404724,-20.1896078431373,-17.4377479553223,55.1476707458496
1091,-4.60258064516129,-11.7784042358398,1.81647443771362,-20.5329032258065,-17.4554328918457,55.392520904541
1092,-16.1388235294118,-11.7612810134888,1.92024326324463,-15.84,-17.4146327972412,55.7019424438477
1093,-11.72,-11.7139139175415,1.86025166511536,-21.96,-17.4764461517334,56.0100212097168
1094,-9.6,-11.6936407089233,0.244994878768921,-10.3835897435897,-17.4688377380371,56.2910079956055
1095,-13.8,-11.7072410583496,1.88565671443939,-16.6587134502924,-17.4609622955322,56.5377998352051
1096,-13.76,-11.6941747665405,1.89241540431976,-24,-17.4881629943848,56.6985740661621
1097,-6.31035460992908,-11.6442432403564,1.96162712574005,-18.1211347517731,-17.5167026519775,56.8242721557617
1098,-18.961546961326,-11.7158555984497,2.0191490650177,-19.4849723756906,-17.5240135192871,57.0348358154297
1099,-4.56894736842105,-11.6489248275757,1.39571344852448,-19.92,-17.5713062286377,57.3043746948242
1100,-9.6,-11.6619911193848,1.91755759716034,-19.92,-17.584903717041,57.5800857543945
1101,-12.4353246753247,-11.6395597457886,1.80508649349213,-17.88,-17.6395702362061,57.837345123291
1102,-11.3486390532544,-11.6592702865601,1.67391681671143,-8.06721893491124,-17.5435848236084,58.0983619689941
1103,-14.9904918032787,-11.7077922821045,1.71041619777679,-9.64918032786886,-17.4690780639648,58.3866767883301
1104,-6.43177570093458,-11.6430797576904,1.73679614067078,-15.2807476635514,-17.4479389190674,58.6692085266113
1105,-3.52,-11.5334787368774,1.81904399394989,-19.88,-17.471492767334,58.9270858764648
1106,-8.1111811023622,-11.5363531112671,1.93845331668854,-12.0513385826772,-17.4737014770508,59.1794128417969
1107,-12.2867489711934,-11.4990653991699,1.90751421451569,-21.96,-17.5200614929199,59.3945999145508
1108,-11.2999043062201,-11.4770317077637,1.74502158164978,-10.5777990430622,-17.4630565643311,59.6156044006348
1109,-14.0245977011494,-11.4853773117065,1.60730075836182,-20.4688505747126,-17.4328479766846,59.8285865783691
1110,-17.5764705882353,-11.5353813171387,1.69530093669891,-11.9623529411765,-17.3957786560059,60.0219383239746
1111,-14.5534782608696,-11.505467414856,1.73928236961365,-17.92,-17.4463500976562,60.2597961425781
1112,-15.88,-11.5366344451904,0.515390634536743,-20.1295238095238,-17.4458675384521,60.5281105041504
1113,-14.5044680851064,-11.54150390625,1.86998355388641,-18.161914893617,-17.47119140625,60.8048400878906
1114,-13.72,-11.5687036514282,0.544095754623413,-14.420253164557,-17.4345264434814,61.0700874328613
1115,-17.88,-11.5820369720459,1.92448711395264,-14.9146308724832,-17.4720916748047,61.3188629150391
1116,-15.8704347826087,-11.5597009658813,1.99640023708344,-19.92,-17.505199432373,61.5666770935059
1117,-19.96,-11.5829343795776,1.92920291423798,-15.0302702702703,-17.509069442749,61.81640625
1118,-6.5458201058201,-11.555154800415,1.58197963237762,-20.5549206349206,-17.4997005462646,62.0539970397949
1119,-18.8301246882793,-11.5342884063721,1.34934735298157,-17.794812967581,-17.4855346679688,62.3116989135742
1120,-9.64,-11.5302152633667,1.75283479690552,-9.72,-17.4458427429199,62.5547218322754
1121,-1.28,-11.4822378158569,2.01103520393372,-19.92,-17.4554786682129,62.7432823181152
1122,-13.72,-11.4790744781494,2.12077069282532,-19.92,-17.4993419647217,62.9462280273438
1123,-9.77345794392523,-11.4584445953369,2.05946683883667,-19.9854205607477,-17.489631652832,63.2090797424316
1124,-13.3505882352941,-11.4799108505249,2.09206175804138,-12.52,-17.4632949829102,63.4778900146484
1125,-11.2666666666667,-11.4716291427612,2.15040802955627,-20.4471317829457,-17.5081424713135,63.7302856445312
1126,-18.7983673469388,-11.5310173034668,2.16988253593445,-16.6342857142857,-17.5142307281494,63.9796409606934
1127,-10.0933333333333,-11.4871501922607,2.06494498252869,-16.3933333333333,-17.5061798095703,64.1909027099609
1128,-17.0727272727273,-11.5095024108887,2.14784860610962,-15.3545454545455,-17.495964050293,64.4148864746094
1129,-5.29590062111801,-11.4583759307861,1.80609798431396,-14.6757763975155,-17.4559516906738,64.6618804931641
1130,-6.79671497584541,-11.4504146575928,1.85982799530029,-24,-17.5344524383545,64.8940811157227
1131,-13.3889308176101,-11.5070199966431,1.73587131500244,-22.9474213836478,-17.5964279174805,65.1469421386719
1132,-13.84,-11.6107244491577,1.7277991771698,-21.96,-17.5939865112305,65.4241561889648
1133,-16.8798122065728,-11.6453895568848,1.68610465526581,-18.0018779342723,-17.6018314361572,65.7164688110352
1134,0.56,-11.5557565689087,1.81627595424652,-19.96,-17.6127319335938,66.0066452026367
1135,-9.68,-11.6083917617798,2.06301021575928,-21.96,-17.6219711303711,66.2928085327148
1136,-9.64,-11.5481052398682,2.08654618263245,-14.3014634146341,-17.5847797393799,66.5634231567383
1137,-15.8,-11.5481052398682,1.97880101203918,-21.7094736842105,-17.6234493255615,66.8090972900391
1138,-12.2659405940594,-11.5422115325928,2.01097512245178,-21.96,-17.6313209533691,67.0541534423828
1139,-10.5529281767956,-11.5163583755493,2.01009941101074,-19.92,-17.6041221618652,67.32421875
1140,-12.8282593856655,-11.4920387268066,1.51681566238403,-18.5548122866894,-17.617790222168,67.5918197631836
1141,-14.2208294930876,-11.52210521698,1.3769918680191,-19.92,-17.6199226379395,67.832893371582
1142,-13.8,-11.52210521698,2.39367127418518,-13.68,-17.5647220611572,68.0559539794922
1143,-2.31139240506329,-11.4716300964355,2.04591774940491,-17.9772151898734,-17.5943431854248,68.2813415527344
1144,-12.8803703703704,-11.4873342514038,1.93680417537689,-18.7874074074074,-17.5595932006836,68.5277328491211
1145,-3.48,-11.4160690307617,1.98401629924774,-11.68,-17.5083389282227,68.7840728759766
1146,-14.9380415430267,-11.4086065292358,1.7250589132309,-20.2256379821958,-17.5358829498291,241.809448242188
1147,-9.68,-11.4144268035889,2.26008939743042,-22.8753439153439,-17.5652618408203,1267.72778320312
1148,-12.5720454545455,-11.4611740112305,1.80163288116455,-18.5447727272727,-17.5558261871338,658.805786132812
1149,-11.76,-11.4891738891602,1.68979716300964,-13.3190243902439,-17.5118198394775,2628.13842773438
1150,-19.92,-11.553183555603,1.49489831924438,-17.88,-17.4950866699219,69.8121795654297
1151,-5.67463687150838,-11.4556446075439,1.55394816398621,-14.4136312849162,-17.4677200317383,69.9675521850586
1152,-9.61829268292683,-11.4538822174072,1.6120753288269,-13.4760975609756,-17.4329280853271,9101.70703125
1153,-11.52,-11.476752281189,1.61301898956299,-19.4923595505618,-17.428430557251,5432.06640625
1154,-13.76,-11.4462194442749,1.75422966480255,-3.32,-17.3227920532227,9802.79296875
1155,-9.68510638297872,-11.42884349823,1.89381968975067,-19.92,-17.3305130004883,8894.3466796875
1156,-5.41263157894737,-11.4181871414185,1.82624292373657,-19.1957894736842,-17.3256855010986,7423.60986328125
1157,-8.51698924731183,-11.4306554794312,1.80540251731873,-22.3255913978495,-17.3716506958008,7238.771484375
1158,-15.1356097560976,-11.4060049057007,1.91049194335938,-21.96,-17.410623550415,6858.41796875
1159,-13.432514619883,-11.4125394821167,1.77749919891357,-20.8030409356725,-17.4375629425049,7088.3525390625
1160,-3.4,-11.325719833374,1.84873855113983,-19.92,-17.4917163848877,5405.1650390625
1161,-12.165,-11.3012199401855,2.10027885437012,-15.11,-17.4659767150879,6786.87890625
1162,-7.56,-11.2172441482544,2.23664617538452,-13.76,-17.4401931762695,6248.83251953125
1163,-9.68,-11.2303104400635,2.26265549659729,-17.84,-17.4532623291016,5350.28759765625
1164,-5.48,-11.1569967269897,2.22432422637939,-17.84,-17.4692802429199,4504.01416015625
1165,-7.52,-11.1297969818115,2.21763062477112,-21.96,-17.4957942962646,6394.35888671875
1166,-13.5757894736842,-11.1013689041138,1.20879805088043,-19.4194736842105,-17.4652576446533,6241.02587890625
1167,-12.4641860465116,-11.0716190338135,1.62676119804382,-16.2288372093023,-17.4361476898193,2213.85034179688
1168,-11.8,-11.0171718597412,2.17582368850708,-16.425,-17.4355297088623,6090.07958984375
1169,-1.16,-10.979884147644,2.13253879547119,-7.52,-17.3777179718018,7544.28515625
