EpisodeIndex,DQNEpisodeReward,DQNAverageReward,DQNEpisodeQ0,DDQNEpisodeReward,DDQNAverageReward,DDQNEpisodeQ0
1,-14.1822231100722,-14.1822233200073,0.14499394595623,-4.96078122824539,-4.96078109741211,0.408898383378983
2,-21.4992867725442,-17.8407554626465,0.0436379872262478,-18.1779072202969,-11.5693445205688,0.0585763826966286
3,-20.9995571944837,-18.8936901092529,0.0388011522591114,-17.9985735450884,-13.712420463562,0.03297995403409
4,-11.85564369294,-17.1341781616211,0.031223913654685,-15.5027789965719,-14.1600093841553,0.0398182421922684
5,-18.7505776026469,-17.4574565887451,0.0170217249542475,-13.714949094882,-14.0709972381592,0.0216961372643709
6,-10.7091978992405,-16.3327465057373,1.67913246154785,-19.6571815093863,-15.002028465271,1.62635147571564
7,-24,-17.4280681610107,0.0131933065131307,-8.25872127631664,-14.0386981964111,0.0256007760763168
8,-13.4979093368139,-16.9367980957031,0.0202680826187134,-20.9995571944837,-14.908805847168,0.0331945270299911
9,-17.5652849302415,-17.0066318511963,0.0248910952359438,-17.472838095873,-15.1936988830566,0.0206050220876932
10,-16.4988929862092,-16.9558563232422,0.0506984107196331,-14.998671583451,-15.1741962432861,0.0253344848752022
11,-16.4986225642697,-16.9142894744873,0.0485184602439404,-16.4986225642697,-15.2945985794067,0.0587500743567944
12,-20.2493357917255,-17.192211151123,0.0127421412616968,-22.7497785972418,-15.9158630371094,0.010917404666543
13,-13.0395806743601,-16.8727779388428,0.0283977873623371,-16.9536598435128,-15.9956951141357,0.0304026417434216
14,-13.9728117641939,-16.6656379699707,0.0427045971155167,-19.2598399934062,-16.2288475036621,0.050947543233633
15,-10.7318755950575,-16.2700538635254,0.0121376812458038,-12.593926431673,-15.9865198135376,0.0152538185939193
16,-14.4933672625306,-16.1590099334717,0.196429282426834,-17.1171518836795,-16.0571823120117,0.0981036648154259
17,-16.8992070128455,-16.2025527954102,0.0127919325605035,-13.6343294794407,-15.914662361145,0.0197204370051622
18,-13.5713791472154,-16.05637550354,0.0278414115309715,-8.74318128593154,-15.51624584198,0.0312433801591396
19,-20.6495571944837,-16.2981204986572,0.705766201019287,-16.2263871162401,-15.5536222457886,0.420441716909409
20,-17.6356994280892,-16.3650016784668,0.276047885417938,-22.7497785972418,-15.9134311676025,0.280673414468765
21,-19.4993357917255,-16.5142555236816,0.0236939527094364,-17.9988439670279,-16.0127353668213,0.0119706308469176
22,-20.7495571944837,-16.7067699432373,0.0223932769149542,-18.2027913354489,-16.112283706665,0.0255385544151068
23,-13.0984011615116,-16.5498847961426,0.0162648968398571,-15.5488929862092,-16.0877876281738,0.0156274139881134
24,-17.9991143889674,-16.6102695465088,0.0339199677109718,-16.4983521423302,-16.1048946380615,0.0369894243776798
25,-20.9995571944837,-16.7858390808105,0.0905542820692062,-17.9988439670279,-16.1806526184082,0.0592422969639301
26,-17.9963946152549,-16.8323993682861,0.014993192628026,-16.2520555654379,-16.1833992004395,0.0158449560403824
27,-20.0049047880666,-16.9498996734619,0.0379944145679474,-16.7504512873631,-16.2044010162354,0.0308152604848146
28,-13.9064762445561,-16.8412055969238,0.00962635409086943,-20.7495571944837,-16.3667278289795,0.0153705412521958
29,-13.7812312599219,-16.735689163208,0.00244775577448308,-13.368187781661,-16.2633304595947,0.010555999353528
30,-16.6134001032531,-16.7316131591797,0.0337006635963917,-20.1895571944837,-16.3942050933838,0.0401194989681244
31,-11.0577597108788,-16.5485858917236,0.0488101094961166,-13.2919104425683,-16.2941303253174,0.0786919668316841
32,-20.1911156360421,-16.6624145507812,0.0305087938904762,-11.378320310563,-16.140510559082,0.0169156268239021
33,-12.8655563956374,-16.5473594665527,0.018787020817399,-18.2488439670279,-16.2044010162354,0.0167535413056612
34,-24,-16.7665557861328,0.012280872091651,-13.6471353387267,-16.129186630249,0.0194702930748463
35,-19.4993357917255,-16.844633102417,0.0435953363776207,-16.4988929862092,-16.1397495269775,0.0584387518465519
36,-20.9995571944837,-16.9600467681885,0.0492318756878376,-14.9984011615116,-16.1080455780029,0.0521576888859272
37,-19.1545571944837,-17.0193576812744,0.0254222583025694,-21.5547785972418,-16.2552547454834,0.0456796176731586
38,-20.3584680855728,-17.1072311401367,0.0301123075187206,-12.9878994553703,-16.1692714691162,0.0293523967266083
39,-17.6517748161158,-17.1211948394775,0.0233528111129999,-13.1612150796157,-16.0921421051025,0.0458210594952106
40,-12.8007191393295,-17.0131816864014,0.00981249567121267,-10.9416378764874,-15.96337890625,0.0461620837450027
41,-12.9333590056267,-16.9136734008789,0.00608788384124637,-15.5636647201546,-15.9536294937134,0.012573660351336
42,-22.7497785972418,-17.0526275634766,0.00818993244320154,-9.80278663963306,-15.8071813583374,0.0192278772592545
43,-18.6251914959122,-17.0892009735107,0.0125395702198148,-14.4358299231461,-15.7752895355225,0.0103360284119844
44,-19.2493357917255,-17.1382942199707,0.0255353581160307,-12.9302193433297,-15.7106294631958,0.0225665960460901
45,-14.178671583451,-17.0725231170654,0.00919950380921364,-16.6524477223007,-15.7315578460693,0.0130041800439358
46,-15.0824477223007,-17.0292625427246,0.0304970405995846,-18.5740252795901,-15.7933511734009,0.0689682513475418
47,-17.4991143889674,-17.0392589569092,0.0213480070233345,-19.768425119012,-15.8779268264771,0.119264416396618
48,-8.0364299770046,-16.8516998291016,0.0305307023227215,-18.5826691250588,-15.9342756271362,0.136908635497093
49,-17.3378131579807,-16.8616199493408,0.0123419221490622,-17.2727769404077,-15.9615917205811,0.0153849059715867
50,-13.7372611743547,-16.7991333007812,0.0345524474978447,-20.0234702379619,-16.0428295135498,0.0372535362839699
51,-20.2473926923192,-16.8667449951172,0.0060085617005825,-17.2414896122103,-16.066333770752,0.0137148275971413
52,-13.5078458132163,-16.802152633667,0.0151943415403366,-16.1665654860152,-16.0682601928711,0.0244366731494665
53,-17.2967334365864,-16.8114833831787,0.182433009147644,-18.749065369786,-16.1188411712646,0.303445607423782
54,-11.4049432175863,-16.7113628387451,0.0111745065078139,-20.2493357917255,-16.195333480835,0.0171777885407209
55,-21.4995571944837,-16.7984199523926,1.08461153507233,-24,-16.3372364044189,0.99704247713089
56,-19.4993357917255,-16.8466510772705,0.00722812814638019,-20.9995571944837,-16.4204921722412,0.0155946062877774
57,-17.9177534422218,-16.865442276001,0.00885207206010818,-20.6726341175606,-16.4950904846191,0.0114449076354504
58,-20.2473926923192,-16.9237518310547,0.0102422032505274,-19.324232519159,-16.5438690185547,0.00868621375411749
59,-8.93995899441972,-16.7884330749512,0.0203975327312946,-17.8906100299527,-16.5666942596436,0.0162606909871101
60,-20.2493357917255,-16.8461170196533,0.00940648373216391,-21.4995571944837,-16.6489086151123,0.0210136733949184
61,-21.6988526713159,-16.9256687164307,0.0193526670336723,-16.4062513744353,-16.6449317932129,0.0254238545894623
62,-19.0319277220991,-16.9596405029297,0.00953417271375656,-14.9745043785821,-16.6179885864258,0.0146013125777245
63,-18.6134662265081,-16.9858913421631,0.0170266926288605,-16.835800488767,-16.6214466094971,0.0234940722584724
64,-16.4983521423302,-16.9782733917236,0.00224935077130795,-13.4976389148744,-16.5726375579834,0.0178499240428209
65,-18.1570898490901,-16.9964084625244,-0.0089243296533823,-13.0760811765283,-16.5188446044922,0.0152763510122895
66,-14.4846072719235,-16.9583511352539,0.067913681268692,-16.5134001032531,-16.518762588501,0.0932730138301849
67,-19.4993357917255,-16.9962768554688,0.00104382866993546,-17.3361930406528,-16.5309619903564,0.00787496007978916
68,-15.1649559731258,-16.9693450927734,0.0146849965676665,-17.3008241650477,-16.5422821044922,0.0307491105049849
69,-18.7093702828173,-16.9945659637451,-0.018126992508769,-18.4330544933437,-16.5696868896484,0.0811166986823082
70,-19.499065369786,-17.0303440093994,0.0307865627110004,-22.4997785972418,-16.6544017791748,0.0487760491669178
71,-20.2493357917255,-17.0756797790527,0.456404000520706,-20.2493357917255,-16.7050342559814,0.599596083164215
72,-20.249065369786,-17.1197547912598,1.57722544670105,-18.0507056547392,-16.7237243652344,1.40673589706421
73,-19.4993357917255,-17.1523513793945,-0.000777488225139678,-21.3856481624592,-16.7875862121582,0.0140635157003999
74,-11.2098199703936,-17.0720462799072,-0.16362638771534,-8.69995999509212,-16.6782932281494,0.249733731150627
75,-15.4617580671283,-17.0505752563477,-0.00165529339574277,-17.3467665192113,-16.6872062683105,0.0195388626307249
76,-16.4981307395721,-17.043306350708,-0.00256859813816845,-19.3743357917255,-16.722562789917,0.0199473779648542
77,-6.76819823861467,-16.9098644256592,-0.00190448469948024,-19.4993357917255,-16.7586250305176,0.00301712704822421
78,-21.9997785972418,-16.975118637085,0.00437450595200062,-12.0523917718402,-16.6982898712158,0.0126912351697683
79,-6.73814318456703,-16.8455371856689,0.0146890645846725,-11.7878243328868,-16.6361312866211,0.019257415086031
80,-20.2447952897218,-16.8880271911621,0.0593459010124207,-15.7250834623997,-16.6247444152832,0.08078583329916
81,-22.7497785972418,-16.9603958129883,-0.00538537558168173,-24,-16.7157955169678,0.00569395441561937
82,-24,-17.0462455749512,0.00552883697673678,-16.8324477223007,-16.7172183990479,0.0113535141572356
83,-19.7649203229753,-17.0790004730225,0.0228644236922264,-19.488162607368,-16.750602722168,0.0169384516775608
84,-17.0633601819694,-17.0788135528564,0.0150108095258474,-15.1119192670161,-16.7310943603516,0.0199557039886713
85,-14.6041561441039,-17.0496997833252,-0.00101087393704802,-14.432562668646,-16.7040538787842,0.00576559733599424
86,-12.1221329392984,-16.9924030303955,0.00419634068384767,-16.8715147744813,-16.7060012817383,0.00659257080405951
87,-16.4983521423302,-16.986722946167,0.0225507412105799,-14.9978004454693,-16.6863670349121,0.0330768451094627
88,-17.9988439670279,-16.9982242584229,0.0187128428369761,-20.9995571944837,-16.7353801727295,0.020007498562336
89,-18.6107158552229,-17.0163421630859,-0.00700270151719451,-13.34598036485,-16.6972980499268,0.0294467862695456
90,-19.4993357917255,-17.0439319610596,-0.0609681308269501,-12.3800579662453,-16.6493263244629,0.273344963788986
91,-22.7497785972418,-17.106632232666,0.00495872786268592,-17.6073345330656,-16.659854888916,0.0140219070017338
92,-19.499065369786,-17.1326370239258,0.161281168460846,-24,-16.7396392822266,0.0940529108047485
93,-16.9988929862092,-17.1312007904053,1.15426230430603,-14.6887664039307,-16.717586517334,0.905896663665771
94,-20.7495571944837,-17.1696929931641,0.0111970193684101,-19.7554627062947,-16.7499046325684,0.00396041059866548
95,-16.933896997663,-17.1672115325928,-0.0311145856976509,-18.9988439670279,-16.7735767364502,0.107797347009182
96,-12.6484011615116,-17.120138168335,-0.027743972837925,-21.4995571944837,-16.8228073120117,0.0280769523233175
97,-18.7493357917255,-17.1369342803955,-0.0125070903450251,-18.3590918892865,-16.8386459350586,0.000939010875299573
98,-18.0211306635204,-17.1459579467773,0.0324297398328781,-19.3762588686486,-16.8645401000977,0.0800049304962158
99,-16.4988929862092,-17.1394214630127,0.00595824746415019,-19.4993357917255,-16.8911533355713,0.0133454818278551
100,-12.7590394593839,-17.0956172943115,-0.00639044074341655,-22.7497785972418,-16.9497394561768,-0.00015075714327395
101,-11.3996887151596,-17.0392227172852,-0.0240863505750895,-15.8982560198686,-16.9393291473389,0.0381218418478966
102,-21.4992867725442,-17.0829486846924,0.00257082493044436,-19.4993357917255,-16.9644260406494,-0.00342548126354814
103,-18.6058931687747,-17.0977344512939,0.00309179187752306,-20.2484646537438,-16.9963111877441,0.0319047644734383
104,-18.7761529391645,-17.1138725280762,-0.00860853120684624,-16.5620730382197,-16.9921340942383,0.00760543253272772
105,-17.3756732353206,-17.1163673400879,-0.00962380412966013,-13.5586490837702,-16.9594345092773,0.00983771122992039
106,-22.7497785972418,-17.1695117950439,-0.0237604919821024,-16.1050626639722,-16.9513740539551,0.0369728691875935
107,-15.3454838953001,-17.1524639129639,-0.000951625988818705,-13.6236225642697,-16.9202728271484,0.0158142298460007
108,-15.8421376447813,-17.1403331756592,-0.000610110873822123,-13.1556483276371,-16.8854160308838,0.0140953129157424
109,-13.2607197762221,-17.1047401428223,0.00632793502882123,-13.7174095416021,-16.856351852417,0.0125229591503739
110,-20.9995571944837,-17.1401462554932,0.00588413141667843,-14.998671583451,-16.8394622802734,0.0425329655408859
111,-20.002832303654,-17.1659355163574,-0.0226552337408066,-17.954575966398,-16.8495101928711,0.0271397978067398
112,-19.4993357917255,-17.1867713928223,-0.00152919522952288,-22.4997785972418,-16.899959564209,0.0146236410364509
113,-15.9293737379786,-17.1756439208984,0.002843206981197,-22.7497785972418,-16.9517269134521,0.00102734204847366
114,-14.0500740885714,-17.1482257843018,-0.0154306627810001,-16.7488439670279,-16.9499492645264,0.00919048860669136
115,-9.64735158495226,-17.0830020904541,-0.0147242220118642,-17.4587695667751,-16.9543724060059,-0.0260491892695427
116,-17.8386215060112,-17.0895156860352,0.00506617594510317,-8.47972189985402,-16.8813152313232,0.00489789247512817
117,-14.9984011615116,-17.0716419219971,0.0116109726950526,-17.9991143889674,-16.890869140625,0.0153291542083025
118,-17.8997117315751,-17.0786590576172,0.0119606330990791,-17.4991143889674,-16.8960227966309,0.00564654357731342
119,-16.7619361737372,-17.0759983062744,0.00840132590383291,-15.603922572008,-16.8851661682129,0.00653269328176975
120,-21.4995571944837,-17.1128616333008,0.408434510231018,-20.2493357917255,-16.913200378418,0.553477466106415
121,-18.2488439670279,-17.1222496032715,-0.0413925684988499,-18.9988439670279,-16.9304389953613,0.00220169173553586
122,-16.8867112881922,-17.1203193664551,-0.0467700846493244,-21.0075305352263,-16.9638557434082,0.0124293733388186
123,-14.0351884373836,-17.095235824585,0.0100322030484676,-16.6112035175897,-16.9609889984131,0.0133546376600862
124,-24,-17.1509208679199,0.403711050748825,-20.7495571944837,-16.9915409088135,0.406409621238708
125,-18.7493357917255,-17.1637096405029,-0.0033209971152246,-15.3494847021855,-16.9784069061279,0.0280783548951149
126,-13.4981797587534,-17.1346168518066,0.0192872062325478,-16.4988929862092,-16.9745998382568,0.0138123650103807
127,-19.4821877326552,-17.1531009674072,0.815420806407928,-3.26065009834953,-16.8666172027588,0.696949660778046
128,-14.9981307395721,-17.1362648010254,0.0244289375841618,-19.4993357917255,-16.8871841430664,0.0175315756350756
129,-9.82745144355284,-17.0796070098877,0.034594789147377,-17.7486225642697,-16.8938617706299,0.00147343648131937
130,-15.6838372241274,-17.0688705444336,0.0186305269598961,-13.3173957984705,-16.8663501739502,0.00360149657353759
131,-16.5022569363112,-17.064546585083,0.871454060077667,-17.8824415937733,-16.8741073608398,1.05110931396484
132,-14.9070091258095,-17.0482006072998,0.0600046329200268,-18.2488439670279,-16.884521484375,0.110337354242802
133,-15.8844607145587,-17.0394496917725,0.0111047700047493,-16.6725247935916,-16.8829288482666,0.00265601882711053
134,-17.9991143889674,-17.0466117858887,0.0614473149180412,-17.9991143889674,-16.8912563323975,0.0392674989998341
135,-20.9995571944837,-17.0758934020996,0.0287248808890581,-17.9991143889674,-16.8994655609131,0.0183284766972065
136,-18.2488439670279,-17.0845184326172,0.0320402309298515,-17.3575481239071,-16.90283203125,0.0105815520510077
137,-15.8336883078466,-17.0753879547119,0.0234932824969292,-9.14598862227291,-16.846212387085,0.0141283953562379
138,-20.9995571944837,-17.1038227081299,0.0486975200474262,-17.9991143889674,-16.8545684814453,0.0374075584113598
139,-21.4995571944837,-17.1354484558105,0.0315741151571274,-13.6299319838876,-16.8313694000244,0.0314323306083679
140,-17.9050939670279,-17.1409454345703,0.0228308886289597,-15.1238929862092,-16.8191738128662,0.0151737537235022
141,-14.1044916892711,-17.1194114685059,0.0226325001567602,-18.7956320880218,-16.8331909179688,0.00421464489772916
142,-8.71751732554041,-17.0602416992188,0.0200342703610659,-13.5145301937696,-16.8098201751709,0.00426174933090806
143,-19.4993357917255,-17.0773010253906,0.0238287746906281,-22.4997785972418,-16.849609375,0.0151698878034949
144,-19.4984646537438,-17.0941123962402,0.0278941914439201,-19.499065369786,-16.8680076599121,0.00876574777066708
145,-17.418400539927,-17.0963497161865,0.017515754327178,-19.1902046764981,-16.8840236663818,0.000362156133633107
146,-17.4991143889674,-17.0991077423096,-0.0140470517799258,-15.5801142769769,-16.8750915527344,-0.0305395647883415
147,-11.5137509485304,-17.0611114501953,0.0582172721624374,-15.4957183830346,-16.8657093048096,0.0219350587576628
148,-18.9991143889674,-17.0742073059082,0.161885544657707,-13.9910395830678,-16.846284866333,0.400871276855469
149,-16.2951402633242,-17.0689792633057,0.024868568405509,-2.56889222960056,-16.7504634857178,0.00422708224505186
150,-13.585389061079,-17.0457553863525,0.0187310520559549,-19.1502281604837,-16.7664623260498,0.0879128724336624
151,-24,-17.1112060546875,-0.15193709731102,-14.0561952557011,-16.8270988464355,0.0852045565843582
152,-13.8544426700898,-17.0602416992188,0.011257485486567,-17.3167961091858,-16.8213577270508,0.0014900789828971
153,-18.749065369786,-17.045238494873,0.0248609650880098,-18.994385296676,-16.827995300293,-0.00135789648629725
154,-22.1712071686704,-17.1140079498291,0.049840047955513,-18.5588596012493,-16.8483695983887,0.0142973642796278
155,-18.1461732124968,-17.109977722168,-0.00230193557217717,-18.9229111804112,-16.8830890655518,-0.0129060409963131
156,-15.6499428681268,-17.142915725708,0.713103890419006,-20.249065369786,-16.887035369873,0.590948462486267
157,-20.2493357917255,-17.1179141998291,0.0218631103634834,-13.8967707124179,-16.9246215820312,0.0138367023319006
158,-16.4988929862092,-17.1379203796387,0.0244402475655079,-11.997357639953,-16.8646068572998,0.0133230611681938
159,-19.4993357917255,-17.1508102416992,0.0196516253054142,-16.0859226187133,-16.8553619384766,0.013515998609364
160,-14.9981307395721,-17.1408081054688,0.0116358380764723,-16.4988929862092,-16.8653621673584,0.043141882866621
161,-21.4995571944837,-17.1741466522217,0.680100798606873,-8.19283561338065,-16.8099918365479,0.842349588871002
162,-16.5984051691092,-17.149808883667,-0.0146728809922934,-21.4995571944837,-16.8016567230225,0.0205107983201742
163,-19.4456445165577,-17.192512512207,0.0165937449783087,-19.4559330334099,-16.818338394165,0.00705981161445379
164,-12.9170109275846,-17.185474395752,-0.00106883863918483,-9.77030631543844,-16.7550754547119,0.00291113299317658
165,-13.1137072839605,-17.2013549804688,0.0234154332429171,-7.09380459076557,-16.7184085845947,0.00983417872339487
166,-17.9991143889674,-17.2247257232666,0.0171137172728777,-20.9995571944837,-16.744291305542,0.0365891642868519
167,-15.0233521423302,-17.2122211456299,0.0193635355681181,-17.7488929862092,-16.7717208862305,0.00130371993873268
168,-14.4940149374287,-17.2183723449707,0.00162569340318441,-17.6517748161158,-16.8311100006104,-0.00898602697998285
169,-12.1781613068368,-17.1618957519531,0.221080407500267,-14.7979309570147,-16.8215866088867,0.669164896011353
170,-19.499065369786,-17.1743183135986,0.00770802004262805,-11.9970872180135,-16.7499027252197,0.0155178532004356
171,-19.922967599108,-17.1771411895752,-0.000292153796181083,-16.4586519612217,-16.7396354675293,-0.00315324775874615
172,-19.4993357917255,-17.1688060760498,0.00908849947154522,-22.4997785972418,-16.7682819366455,0.00635545141994953
173,-19.8907336650719,-17.2140884399414,0.0207896772772074,-14.8457304069804,-16.7635936737061,0.0099597591906786
174,-17.9991143889674,-17.2140884399414,0.0213473569601774,-10.4968658152554,-16.7235832214355,0.00874682515859604
175,-15.5192107995638,-17.1775531768799,-0.0159793011844158,-17.0167614477909,-16.7170372009277,-0.00178527587559074
176,-19.4993357917255,-17.187572479248,0.0302308332175016,-16.9495648394178,-16.7216873168945,0.0103280441835523
177,-21.4995571944837,-17.1975383758545,0.025849400088191,-18.9988439670279,-16.7366771697998,0.0120563637465239
178,-14.0709453879559,-17.1986351013184,-0.0168099030852318,-17.8514640543641,-16.717357635498,-0.0356050059199333
179,-9.05724913999325,-17.167142868042,0.00454462831839919,-16.6732488352038,-16.7393913269043,-0.00550458393990993
180,-19.1986111540444,-17.1843757629395,-0.0451109670102596,-19.1623792699864,-16.7325420379639,0.0230316314846277
181,-13.1028315412584,-17.1980113983154,0.00306254811584949,-17.6227535132445,-16.7614135742188,0.00510045886039734
182,-20.1196012473471,-17.1975326538086,-0.0221251081675291,-14.6151412496173,-16.7829914093018,-0.00468188105151057
183,-13.4979093368139,-17.2017478942871,0.0323379337787628,-16.4988929862092,-16.7713241577148,0.020497165620327
184,-22.7497785972418,-17.1934146881104,0.0212106518447399,-20.4550786668763,-16.8167114257812,0.000296222628094256
185,-17.1312982970133,-17.1776275634766,0.0319290235638618,-8.63192328651973,-16.7642669677734,0.00981213711202145
186,-21.4995571944837,-17.1809597015381,0.0400654077529907,-16.8605601720999,-16.7766819000244,0.0238336287438869
187,-17.9988439670279,-17.1732559204102,0.0280786547809839,-14.9981307395721,-16.7329711914062,0.027471125125885
188,-15.7669152471965,-17.1426448822021,0.0355326198041439,-11.1023301200364,-16.7203979492188,0.0205651298165321
189,-19.4993357917255,-17.1549606323242,0.0150142349302769,-19.4993357917255,-16.7626533508301,0.0401444025337696
190,-15.497751426288,-17.1729431152344,0.0226062275469303,-18.0216362612091,-16.8098526000977,0.0252261683344841
191,-10.0363708752755,-17.1536293029785,0.0379525534808636,-20.2761844134186,-16.8412704467773,0.0295126065611839
192,-20.249065369786,-17.1369571685791,0.0320232547819614,-20.2065304882522,-16.9106273651123,0.0236624404788017
193,-13.9320109717851,-17.1056690216064,0.0277085974812508,-14.1565663202931,-16.9087657928467,0.0196291506290436
194,-16.4983521423302,-17.087329864502,0.0150877488777041,-16.4988929862092,-16.9325561523438,0.0294407475739717
195,-20.249065369786,-17.127799987793,0.0265572220087051,-8.3469326497756,-16.8771877288818,0.0132910422980785
196,-11.481355566135,-17.1037921905518,0.033442098647356,-19.3434916358814,-16.8823184967041,0.0135481040924788
197,-17.9536598435128,-17.1068229675293,-0.000695104594342411,-18.3854290061497,-16.8730983734131,0.105263635516167
198,-21.4992867725442,-17.1965751647949,0.0329785235226154,-17.9512137259978,-16.8688907623291,0.00843383278697729
199,-14.9509921452572,-17.1806621551514,0.0250012576580048,-14.0924605674522,-16.8476848602295,0.00753556052222848
200,-18.5105717467817,-17.2124843597412,0.00683429278433323,-14.5542016235084,-16.8112239837646,-0.023203095421195
201,-14.9984011615116,-17.177490234375,-0.0013081239303574,-19.4993357917255,-16.8262767791748,-0.0134983295574784
202,-14.4975790427112,-17.1840877532959,-0.0332198739051819,-16.6124803306642,-16.8292503356934,-0.0336491912603378
203,-12.9923690624426,-17.1553936004639,-0.0171526782214642,-14.3431603793958,-16.799877166748,-0.00974682718515396
204,-12.5061915297835,-17.1627349853516,0.0337125882506371,-13.0560370225445,-16.7519226074219,-0.00328510347753763
205,-12.5473728821523,-17.1030540466309,0.0425244532525539,-14.3038173694645,-16.6872806549072,0.00218281475827098
206,-14.9407005689583,-17.0726623535156,-0.0070968559011817,-16.4984011615116,-16.6572723388672,0.150876849889755
207,-4.63824344177979,-16.9841346740723,0.0481883250176907,-17.8464231703663,-16.6384315490723,0.0124668926000595
208,-15.6874894774373,-16.9537334442139,0.0391911678016186,-21.4995571944837,-16.6529331207275,0.0146289160475135
209,-17.9991143889674,-17.0141277313232,0.0389197468757629,-20.9995571944837,-16.6736583709717,0.0167632754892111
210,-16.1762541432171,-16.9869766235352,0.0406469367444515,-19.177188773431,-16.6581764221191,0.0212181881070137
211,-9.2041828884261,-16.9036750793457,0.0195626467466354,-9.48001404728182,-16.6120014190674,0.00825637020170689
212,-22.7497785972418,-16.9284629821777,0.0105617363005877,-17.5546692097463,-16.6292018890381,0.00397700862959027
213,-10.6969168758518,-16.8756847381592,0.0583985261619091,-13.5624288978114,-16.6073818206787,0.0246851462870836
214,-14.9426424166403,-16.8653125762939,0.000313091557472944,-16.9487267920681,-16.6303882598877,0.00620126118883491
215,-15.2142527720593,-16.8456954956055,0.0509104207158089,-17.969461577889,-16.6630096435547,0.01387619972229
216,-16.4988929862092,-16.8591232299805,0.0574821718037128,-16.4986225642697,-16.6629123687744,0.02820117585361
217,-10.4342262703813,-16.7986888885498,0.0444944687187672,-14.186994657293,-16.641918182373,0.0211848523467779
218,-22.7497785972418,-16.8492546081543,0.16418682038784,-8.31083247299448,-16.5819835662842,0.263686269521713
219,-13.1134327012477,-16.8119468688965,0.0504368171095848,-15.8583786618307,-16.5648193359375,0.0235190391540527
220,-17.9570733934618,-16.8016662597656,0.0174985658377409,-21.1419232356458,-16.5557670593262,-0.00242937658913434
221,-18.2242538030935,-16.7881679534912,0.0287319254130125,-22.7497785972418,-16.572437286377,0.0335509330034256
222,-11.2205500257817,-16.7279777526855,0.0330178290605545,-15.3015245651566,-16.5541095733643,0.0137207778170705
223,-21.4992867725442,-16.7413120269775,0.0692486315965652,-19.1019962188739,-16.5388851165771,0.0176282320171595
224,-15.0279935153097,-16.7667636871338,-0.0475134775042534,-14.998671583451,-16.5808753967285,-0.11112754046917
225,-13.0759873684081,-16.7508602142334,0.0548482537269592,-14.9126370704762,-16.5646476745605,0.0747905597090721
226,-18.3258063799608,-16.7630443572998,0.0560919567942619,-15.1959027905573,-16.536792755127,0.0365286357700825
227,-13.8395316551788,-16.8101863861084,0.0263345129787922,-10.9302193433297,-16.479663848877,0.0251374840736389
228,-15.4634001032531,-16.7666110992432,0.0157712679356337,-17.5779072202969,-16.5165004730225,0.0420089587569237
229,-17.9404185942733,-16.8412914276123,0.0557999722659588,-16.413348530579,-16.5473365783691,0.0235561281442642
230,-22.7497785972418,-16.8579940795898,0.0590459816157818,-16.3914797071269,-16.551778793335,0.0176534876227379
231,-10.4707875916438,-16.7761325836182,0.0434180945158005,-17.335800488767,-16.5073509216309,-0.00855284556746483
232,-19.4802881726779,-16.7460021972656,0.0562166683375835,-18.4350500774398,-16.5180358886719,0.0595615059137344
233,-13.6220570754901,-16.7050495147705,0.0589160174131393,-7.36305792914706,-16.4372024536133,0.02450892329216
234,-15.5965024273343,-16.6952705383301,0.581323325634003,-13.1848396003316,-16.4243545532227,0.821695268154144
235,-19.4356994280892,-16.7274799346924,0.0362661741673946,-14.4170257852097,-16.4242515563965,0.00975140742957592
236,-16.8957654214126,-16.7593059539795,0.027245806530118,-9.09537163507758,-16.3724098205566,0.00574400322511792
237,-8.25845085437716,-16.7043724060059,0.0313318334519863,-12.8393102524207,-16.3580207824707,0.0292175430804491
238,-14.996796307299,-16.6843585968018,0.0398148708045483,-16.4980218482275,-16.328010559082,0.010418982245028
239,-17.8514275745104,-16.6792964935303,0.0206245146691799,-15.9572839815926,-16.3454208374023,-0.0122293336316943
240,-16.0358810040649,-16.6562080383301,0.0597884766757488,-11.3961065041434,-16.3388595581055,0.0103469341993332
241,-17.9991143889674,-16.6245384216309,0.0609463304281235,-17.9988439670279,-16.3414688110352,0.0283612497150898
242,-14.4871161872741,-16.5911235809326,0.120505146682262,-19.3366358461691,-16.3103809356689,0.0335134118795395
243,-20.2493357917255,-16.61279296875,-0.167842164635658,-15.3018770021395,-16.3144702911377,-0.0126843238249421
244,-14.6597336753808,-16.572193145752,0.0614050067961216,-15.5486225642697,-16.2864227294922,0.0395335517823696
245,-16.4986225642697,-16.5692920684814,0.0692738890647888,-17.9991143889674,-16.2797584533691,0.0385862253606319
246,-15.6632947785328,-16.589391708374,0.0878467038273811,-14.4347927770357,-16.2326602935791,0.0386767908930779
247,-18.7928511500873,-16.5896816253662,0.412111282348633,-18.1620346530625,-16.2313442230225,1.02176904678345
248,-11.3539001202241,-16.5452346801758,0.0884237363934517,-22.7497785972418,-16.253833770752,0.0447509661316872
249,-11.2219921650755,-16.5100536346436,0.0717246234416962,-15.9134009290532,-16.2299289703369,0.0428203418850899
250,-16.9986225642697,-16.5383167266846,0.0509541146457195,-14.288671583451,-16.1735229492188,0.0341004244983196
251,-11.6897685438001,-16.5402507781982,0.081683374941349,-11.9654204591982,-16.1473045349121,0.0385301634669304
252,-13.1897698019302,-16.4848537445068,-0.189965590834618,-18.9409258349023,-16.1435813903809,0.0511378906667233
253,-14.3601173665836,-16.4565486907959,0.0734780058264732,-19.0050894661716,-16.135290145874,0.042743057012558
254,-11.2220120178332,-16.4061889648438,0.0660346001386642,-8.81362655876022,-16.0836353302002,0.0277749374508858
255,-14.6276024010611,-16.387866973877,-0.0387912504374981,-20.2493357917255,-16.1282386779785,0.0211701821535826
256,-17.9988439670279,-16.3561954498291,0.0276033449918032,-14.9981307395721,-16.1208591461182,0.0253067333251238
257,-12.8993108135072,-16.3398857116699,0.0600082650780678,-22.4995571944837,-16.1800327301025,0.0174416843801737
258,-21.6560285972418,-16.3786449432373,0.0739511623978615,-15.7176429862092,-16.1971130371094,0.0316090174019337
259,-10.9975790427112,-16.3635578155518,0.0859960839152336,-21.4995571944837,-16.2489948272705,0.0385691672563553
260,-15.8223166393717,-16.329044342041,0.0937565714120865,-20.249065369786,-16.2839965820312,0.0467173866927624
261,-13.4975790427112,-16.2856769561768,0.0782339572906494,-17.9991143889674,-16.284294128418,0.0312807522714138
262,-17.9991143889674,-16.2756729125977,0.0306599922478199,-16.4988929862092,-16.2442874908447,0.0267891306430101
263,-13.1850790427112,-16.2573795318604,0.0945109724998474,-13.5400678281782,-16.1828899383545,0.0319819115102291
264,-16.2486225642697,-16.2720355987549,0.116787053644657,-14.6516854756636,-16.1689071655273,0.0548625290393829
265,-14.6238929862092,-16.3052139282227,0.111225999891758,-17.3741143889674,-16.168342590332,0.0598070323467255
266,-18.6145621291741,-16.3103866577148,0.125118687748909,-14.6077250813934,-16.2091960906982,0.0579844452440739
267,-16.4986225642697,-16.3203868865967,0.0751228779554367,-17.9988439670279,-16.2091960906982,0.0302486531436443
268,-13.4973086207717,-16.2910385131836,0.102517142891884,-19.4993357917255,-16.2225284576416,0.0564310550689697
269,-15.6836755949048,-16.2838516235352,0.113103352487087,-14.240148314854,-16.2134380340576,0.0507035627961159
270,-22.7497785972418,-16.2921848297119,0.0997150465846062,-9.29453793096444,-16.1404037475586,0.59218043088913
271,-16.5097526868397,-16.280590057373,0.137500748038292,-16.392731410244,-16.1230297088623,0.0656856819987297
272,-19.499065369786,-16.2980060577393,0.113508626818657,-16.9980218482275,-16.0963020324707,0.0428808443248272
273,-14.7792668179849,-16.3029651641846,0.133752346038818,-16.0152481263961,-16.0923271179199,0.076467476785183
274,-14.365735965301,-16.2387371063232,0.126920804381371,-11.2678802325063,-16.0291175842285,0.0693607032299042
275,-18.7253189673369,-16.2385768890381,0.134642094373703,-22.7497785972418,-16.0784530639648,0.0668534338474274
276,-17.2967334365864,-16.2639026641846,0.149086490273476,-18.0467334365864,-16.088773727417,0.31882444024086
277,-18.9982432509856,-16.2606754302979,0.13428907096386,-15.1530025752503,-16.1680545806885,0.0772795677185059
278,-18.9988439670279,-16.2873477935791,0.108757242560387,-18.9982432509856,-16.1647129058838,0.0601128824055195
279,-15.626036949484,-16.3260040283203,0.124756664037704,-13.3964314277892,-16.1356983184814,0.0283571369946003
280,-15.683736518516,-16.3260021209717,0.131821066141129,-10.9235044340781,-16.1197395324707,0.0671646296977997
281,-21.4339891235576,-16.3588809967041,0.724620819091797,-18.999065369786,-16.1271839141846,1.12236225605011
282,-16.9986225642697,-16.3728256225586,0.128814890980721,-12.1947597305147,-16.0868244171143,0.0584555827081203
283,-19.3349522300817,-16.3958301544189,1.34900963306427,-6.73686226459211,-16.0205860137939,1.1201981306076
284,-15.2706971227803,-16.3776397705078,0.126288801431656,-17.0961876719443,-16.0145664215088,0.0757921412587166
285,-18.2049967419085,-16.3590106964111,0.0638690665364265,-7.45329986505745,-15.944260597229,0.0532343722879887
286,-14.9984011615116,-16.3373413085938,0.122020184993744,-16.4986225642697,-15.9385347366333,0.0774293541908264
287,-14.5710642514081,-16.3289222717285,0.135024532675743,-13.9243221410719,-15.9703903198242,0.0216229446232319
288,-9.36825424961721,-16.2513809204102,0.143851280212402,-19.4405509833036,-15.9799995422363,0.0847197026014328
289,-16.0806061016745,-16.2152538299561,0.0983608141541481,-19.4827612060902,-16.0190200805664,0.0563601292669773
290,-18.2482432509856,-16.2175426483154,0.182156473398209,-9.37737575815293,-15.9807100296021,0.387323439121246
291,-11.246816796074,-16.1984901428223,0.146292701363564,-11.7586700106867,-15.9337959289551,0.0841166526079178
292,-19.318884663906,-16.2691669464111,0.149811297655106,-19.4316666187932,-15.9732437133789,0.0781015604734421
293,-14.998671583451,-16.2391605377197,0.0742362290620804,-14.9984011615116,-15.9232339859009,0.056614775210619
294,-16.4986225642697,-16.2191619873047,0.0707351192831993,-5.99533046899918,-15.8332080841064,0.0616906546056271
295,-15.5521187926608,-16.2067203521729,0.0643952041864395,-14.2484011615116,-15.8002634048462,0.38406690955162
296,-17.8989609543349,-16.2093868255615,-0.0114324912428856,-13.501989678258,-15.7864093780518,0.0962728783488274
297,-19.4993357917255,-16.262622833252,0.151201158761978,-17.8676789869918,-15.8022212982178,0.0865818783640862
298,-14.2864707108064,-16.2312068939209,0.141241833567619,-11.5676371006924,-15.7860660552979,0.0795126855373383
299,-21.9997785972418,-16.2692375183105,0.12637560069561,-12.7686925792662,-15.8540658950806,0.169250503182411
300,-16.4988929862092,-16.2886600494385,0.04284992441535,-10.4962650992131,-15.7963724136353,0.0675338730216026
301,-20.5635106828558,-16.2657508850098,-0.125359401106834,-17.0923590475395,-15.8166131973267,0.0807645693421364
302,-13.9488929862092,-16.2663803100586,0.137343719601631,-12.2437589755309,-15.7827930450439,0.0898883119225502
303,-16.4582231297499,-16.2511081695557,-0.00604990310966969,-14.0743554693928,-15.7499914169312,0.101863384246826
304,-16.5469348917057,-16.2136135101318,0.148229718208313,-15.797535607748,-15.7315816879272,0.103033229708672
305,-14.0500020462473,-16.1863059997559,0.162028446793556,-20.2396562043847,-15.7403612136841,0.116850472986698
306,-18.2488439670279,-16.2036304473877,0.156834527850151,-16.9980218482275,-15.7186880111694,0.0994592532515526
307,-20.9995571944837,-16.2086334228516,0.121050111949444,-14.9981307395721,-15.7260303497314,0.104079015552998
308,-13.5651770823534,-16.1890754699707,0.151235058903694,-18.2488439670279,-15.7677068710327,0.126368537545204
309,-17.933103512525,-16.1786327362061,0.104518719017506,-21.2493357917255,-15.8021306991577,0.106344133615494
310,-15.7800939670279,-16.1838455200195,0.135437250137329,-18.9680857917255,-15.8185920715332,0.114637412130833
311,-14.5776189518721,-16.1377010345459,0.158967837691307,-12.87998010888,-15.8498392105103,0.122582942247391
312,-13.7066868893047,-16.1184215545654,0.137297883629799,-17.9736643002673,-15.8263330459595,0.0897708311676979
313,-19.9992867725442,-16.1221122741699,0.120629735291004,-15.3827512539257,-15.7991800308228,0.09022256731987
314,-16.9988929862092,-16.1493244171143,0.190231278538704,-8.84525291202956,-15.7930107116699,0.342378824949265
315,-17.8028288106463,-16.1805858612061,0.166800677776337,-16.9986225642697,-15.8590431213379,0.115336783230305
316,-17.5702725384565,-16.1777286529541,0.187837570905685,-12.7957988063724,-15.8043518066406,0.394404202699661
317,-17.5835899353719,-16.1947956085205,0.172623723745346,-11.6091688210201,-15.7634191513062,0.108442813158035
318,-16.4988929862092,-16.2081623077393,0.117104962468147,-16.4988929862092,-15.7557344436646,0.100278571248055
319,-13.2091978992405,-16.2150363922119,0.930431485176086,-18.3414410548834,-15.7793588638306,1.19352495670319
320,-20.249065369786,-16.2200355529785,0.16932401061058,-18.8457045068093,-15.8250160217285,0.0937655419111252
321,-15.8940542765318,-16.1931762695312,0.150438159704208,-17.6430745863759,-15.8329133987427,0.093813344836235
322,-20.7015222599859,-16.2011909484863,0.108792699873447,-20.7015222599859,-15.8209247589111,0.0435847900807858
323,-11.5893102524206,-16.1458473205566,0.158537313342094,-24,-15.8819513320923,0.086203970015049
324,-20.249065369786,-16.1608467102051,0.119513936340809,-15.8889405853854,-15.9178991317749,0.0316425487399101
325,-15.3003339011625,-16.159387588501,0.144454330205917,-12.7862060395603,-15.8896951675415,0.0527515336871147
326,-16.4988929862092,-16.1393852233887,0.132608041167259,-13.4984501806929,-15.8666877746582,0.0666524618864059
327,-10.3182271501686,-16.0648422241211,0.0839323922991753,-19.8789689591896,-15.8725557327271,0.0330219753086567
328,-12.6170926360826,-16.0551490783691,0.164932668209076,-15.899490328817,-15.8595409393311,0.084651954472065
329,-15.0769276682901,-16.0952816009521,0.134716212749481,-8.01731843188636,-15.8018360137939,0.082767978310585
330,-17.9160024583922,-16.0867309570312,0.15207701921463,-13.4893633050105,-15.7640171051025,0.0896686315536499
331,-14.9978004454693,-16.0993614196777,0.158189758658409,-13.4970381988322,-15.7365102767944,0.085103340446949
332,-14.1483453318468,-16.0595531463623,0.125219315290451,-9.67606994397807,-15.7035837173462,0.0507371984422207
333,-15.550120407022,-16.0732364654541,0.174716487526894,-12.41648301391,-15.6763668060303,0.0901584252715111
334,-20.2493357917255,-16.056568145752,0.0904837176203728,-7.94722042518444,-15.592981338501,0.0656987354159355
335,-17.3598937364225,-16.0580902099609,0.142968207597733,-16.4015351856289,-15.6447801589966,0.0694566965103149
336,-7.61606412749165,-15.9655342102051,0.945586144924164,-19.1066603064949,-15.6597537994385,1.10835099220276
337,-16.5319012742133,-15.9557552337646,0.0968303009867668,-6.50069375397162,-15.6031036376953,0.0793972536921501
338,-12.8609666065377,-15.9363822937012,0.0896740257740021,-21.9264801679225,-15.6752653121948,0.620347678661346
339,-11.0211130702113,-15.8798599243164,0.183224022388458,-4.66393010533895,-15.5763626098633,0.107422091066837
340,-13.6366283921542,-15.86745262146,0.18261194229126,-16.225148385866,-15.5643863677979,0.111404582858086
341,-10.2298514926925,-15.8687419891357,0.0667626410722733,-11.8723935952314,-15.5083608627319,0.101868629455566
342,-20.5624604202901,-15.870831489563,-0.131839349865913,-17.3071789050964,-15.489031791687,0.0956712067127228
343,-10.4971961093581,-15.8479328155518,0.101824216544628,-11.9958126579037,-15.4746255874634,0.0947025939822197
344,-16.206955897603,-15.8459911346436,0.193837270140648,-20.7495571944837,-15.5029621124268,0.12117850035429
345,-14.6364864026192,-15.8085746765137,0.931414008140564,-17.9541139487221,-15.5670118331909,1.13527572154999
346,-13.914657095353,-15.8247966766357,0.153813809156418,-22.7497785972418,-15.5897197723389,0.117191538214684
347,-20.9995571944837,-15.8451023101807,0.0809470638632774,-11.997357639953,-15.5471324920654,0.110579594969749
348,-18.1952221733985,-15.8230743408203,0.280193150043488,-15.9554798125565,-15.5338277816772,0.38941764831543
349,-16.6399269120958,-15.8343324661255,0.19515685737133,-13.7921498443206,-15.5318260192871,0.131533548235893
350,-13.1309214764803,-15.7984685897827,0.177387297153473,-11.4166492539832,-15.5109100341797,0.0688671544194221
351,-15.5083393085449,-15.8018684387207,0.120657205581665,-3.87600949186228,-15.4067544937134,0.0950942635536194
352,-21.4995571944837,-15.8485479354858,0.186480239033699,-16.7112662424306,-15.4074125289917,0.144914150238037
353,-18.9988439670279,-15.8885917663574,2.03264689445496,-16.2999924272834,-15.4204587936401,1.71958100795746
354,-11.9440541829019,-15.8848438262939,0.193602308630943,-17.3665864462519,-15.4491958618164,0.124840572476387
355,-16.4986225642697,-15.9111852645874,0.116763442754745,-10.4971961093581,-15.4238185882568,0.0975785553455353
356,-15.9506473721741,-15.9179182052612,0.171554639935493,-11.5629990688312,-15.3909149169922,0.105975061655045
357,-12.496796307299,-15.9703092575073,0.205778509378433,-10.450503148172,-15.3416080474854,0.123427592217922
358,-17.9991143889674,-15.9857196807861,0.128385931253433,-11.9976879340558,-15.278263092041,0.11817854642868
359,-21.7194047654661,-16.0105228424072,0.207058444619179,-9.06077204620529,-15.1986722946167,0.132624804973602
360,-14.418671583451,-15.9988050460815,0.19688193500042,-20.7495571944837,-15.209153175354,0.140558540821075
361,-14.9984011615116,-16.0374336242676,0.0786212310194969,-20.9992867725442,-15.2859487533569,0.0832860916852951
362,-13.1315984127193,-15.9733123779297,0.16474911570549,-11.4688624468891,-15.2453775405884,0.105106055736542
363,-16.9862389250111,-16.0152416229248,0.125876039266586,-13.3347570180512,-15.2438592910767,0.0983135402202606
364,-18.9576691250589,-16.0420093536377,0.143250569701195,-19.9787238611503,-15.2640590667725,0.0866560861468315
365,-14.9978603176326,-16.0405654907227,0.176403015851974,-16.4980218482275,-15.2542495727539,0.111018344759941
366,-10.062244070281,-15.997654914856,0.0780575349926949,-12.0262103434459,-15.2244338989258,0.0870276391506195
367,-11.2034217472445,-16.0027828216553,0.180810049176216,-18.0299090557853,-15.2500524520874,0.0913739055395126
368,-15.8459852784249,-15.9567575454712,0.149634435772896,-12.6292358474449,-15.2788410186768,0.704456150531769
369,-18.8812139992174,-15.9952096939087,0.192137002944946,-16.9216994873466,-15.2859306335449,0.119453079998493
370,-9.14210665139603,-15.9364433288574,-0.148146823048592,-20.2493357917255,-15.2799806594849,-0.333689630031586
371,-10.5295772408656,-15.8851451873779,0.117456436157227,-15.8416254021832,-15.2339277267456,0.0876305773854256
372,-14.5275016906121,-15.907190322876,-0.146561458706856,-12.2677506066552,-15.2137012481689,-0.266171246767044
373,-12.469714548509,-15.8469934463501,0.17508964240551,-13.1504786093281,-15.1740236282349,0.116506017744541
374,-11.6215812424375,-15.8242835998535,0.206303149461746,-16.1264435815139,-15.1815433502197,0.129229202866554
375,-16.4978603176326,-15.8470964431763,0.219047501683235,-18.2491143889674,-15.2037858963013,0.133140251040459
376,-12.6209967642302,-15.8090658187866,1.07085835933685,-12.7827194633962,-15.1876983642578,1.02867126464844
377,-14.4099237952564,-15.8128681182861,0.21416600048542,-20.7166353837841,-15.2529411315918,0.135748729109764
378,-16.8395033076872,-15.8220405578613,0.508600354194641,-13.5174105279842,-15.2258710861206,1.01017868518829
379,-11.8160911549957,-15.7812128067017,0.0844172686338425,-21.4995571944837,-15.2597789764404,0.0906234160065651
380,-18.1738439670279,-15.7507066726685,0.200949728488922,-19.0243357917255,-15.2773303985596,0.118333257734776
381,-20.3712963249185,-15.8167085647583,0.168676912784576,-15.61346064229,-15.26584815979,0.121600165963173
382,-17.9991143889674,-15.8068361282349,0.134900331497192,-16.4988929862092,-15.2529411315918,0.099896065890789
383,-14.996796307299,-15.8159990310669,0.204498916864395,-8.99697470659996,-15.2638349533081,0.147508934140205
384,-19.1039869545162,-15.8393831253052,0.140911504626274,-19.4370498659101,-15.305516242981,0.150262206792831
385,-17.8052451450669,-15.8285121917725,0.149127215147018,-13.3610311340128,-15.2984752655029,0.0637455061078072
386,-13.4981797587534,-15.8058624267578,0.212734907865524,-17.9988439670279,-15.3578319549561,0.154073908925056
387,-14.2524671554337,-15.8458232879639,0.117454141378403,-12.7302852194826,-15.3571043014526,0.102728627622128
388,-13.7123075625132,-15.8372592926025,0.238511249423027,-13.7486225642697,-15.3387756347656,0.142659649252892
389,-16.4986225642697,-15.8282403945923,0.153682544827461,-16.4988929862092,-15.3423881530762,0.137831091880798
390,-7.09427249488498,-15.7686309814453,0.2286556661129,-22.4992867725442,-15.416407585144,0.156005859375
391,-17.8662723523297,-15.7677459716797,0.192642852663994,-16.08238511416,-15.4036331176758,0.146042585372925
392,-21.4995571944837,-15.8144950866699,0.253655940294266,-12.6342137521257,-15.3589506149292,0.185521230101585
393,-15.1690807796364,-15.7806262969971,0.242567837238312,-18.9594296884391,-15.3833332061768,0.207770749926567
394,-16.0318246693412,-15.78977394104,0.243672162294388,-14.5311114418854,-15.3765497207642,0.186213061213493
395,-17.9991143889674,-15.7997770309448,0.190136194229126,-11.9970872180135,-15.3365364074707,0.168909296393394
396,-17.7480218482275,-15.8136749267578,0.189828649163246,-12.4912038038813,-15.3235788345337,0.148875698447227
397,-6.61355167056921,-15.732479095459,0.252372235059738,-18.9988439670279,-15.3291568756104,0.187258616089821
398,-13.4193206983507,-15.7462482452393,0.257217019796371,-19.9374766575709,-15.3104085922241,0.183211773633957
399,-15.858955879291,-15.7771615982056,0.246980890631676,-14.1215344956432,-15.2984619140625,0.168736830353737
400,-16.7033894215733,-15.7751932144165,0.215035304427147,-9.86072358164989,-15.2689418792725,0.191958218812943
401,-20.1940016389281,-15.8318881988525,0.251766622066498,-6.21972790698129,-15.230637550354,0.179903104901314
402,-14.9601560560278,-15.8436918258667,0.253767907619476,-13.9960830798432,-15.1976728439331,0.175104841589928
403,-10.0151012131381,-15.8147230148315,0.228487148880959,-16.1517501290663,-15.1786508560181,0.147342845797539
404,-10.4977369532371,-15.8098955154419,0.206825569272041,-14.9978004454693,-15.2198781967163,0.154646143317223
405,-10.2823963400699,-15.7809276580811,0.234265610575676,-16.4113950907217,-15.1942920684814,0.110318347811699
406,-13.4981797587534,-15.7509241104126,0.238849818706512,-19.4993357917255,-15.2243003845215,0.167690828442574
407,-18.4506344930242,-15.7879333496094,0.239817172288895,-11.0660911549957,-15.1480760574341,0.137327745556831
408,-11.9976879340558,-15.7235431671143,0.233051016926765,-13.4975790427112,-15.1332759857178,0.171353131532669
409,-11.1459070314807,-15.7245311737061,0.239630803465843,-16.839753057937,-15.1022119522095,0.175664409995079
410,-12.654772081912,-15.7034149169922,0.181493416428566,-18.2836495172157,-15.0891084671021,0.152890354394913
411,-16.0377040706548,-15.7203502655029,0.269466668367386,-15.7719386264459,-15.0742607116699,0.205317407846451
412,-8.59243605522283,-15.6576385498047,0.254141062498093,-18.5586381173069,-15.0879917144775,0.18281464278698
413,-17.5556621488461,-15.6867761611938,0.286194145679474,-18.2374803306642,-15.1193065643311,0.197301134467125
414,-15.8467765840928,-15.6840963363647,0.25674894452095,-12.1933462384784,-15.1029195785522,0.132950514554977
415,-13.5724707403227,-15.6770868301392,0.306134223937988,-20.1749957909749,-15.1215915679932,0.200190052390099
416,-12.7009328070812,-15.6376628875732,0.280611962080002,-16.7264706655355,-15.1357164382935,0.194224238395691
417,-12.5484011615116,-15.611328125,0.156077355146408,-10.2295061158739,-15.0839223861694,0.177781566977501
418,-20.2493357917255,-15.6563415527344,0.280549198389053,-19.2299293990315,-15.0821256637573,0.196082398295403
419,-14.4816516068989,-15.6483287811279,0.0492299310863018,-15.0680799062087,-15.0876445770264,0.0944328308105469
420,-18.9660024583922,-15.6231021881104,0.245743870735168,-2.59514844962923,-15.0429821014404,0.260019719600677
421,-14.7023485299326,-15.6110544204712,0.269833326339722,-16.3675354415989,-15.0428142547607,0.186927512288094
422,-14.9981307395721,-15.5810480117798,0.168222308158875,-17.9991143889674,-15.0494871139526,0.133589327335358
423,-18.6985035720332,-15.6071748733521,0.278986811637878,-9.38559880543344,-15.0052900314331,0.172111421823502
424,-8.43092235542074,-15.5676107406616,0.270031005144119,-12.7649920582285,-15.0152702331543,0.169229462742805
425,-20.9995571944837,-15.5827722549438,0.237784519791603,-19.4993357917255,-14.9935998916626,0.16016311943531
426,-10.4965953933159,-15.5374383926392,0.26240673661232,-17.9988439670279,-14.9932813644409,0.168321758508682
427,-11.5941458423626,-15.488076210022,0.274140536785126,-10.8274751680983,-14.9644470214844,0.16428317129612
428,-18.1729784132643,-15.4825716018677,0.267631053924561,-12.7429663789029,-14.9227437973022,0.171973958611488
429,-18.7350204259658,-15.5032978057861,0.224134370684624,-16.195473180511,-14.9414043426514,0.158163398504257
430,-22.4997785972418,-15.5487384796143,0.283563226461411,-16.4986225642697,-14.9785709381104,0.202183768153191
431,-13.474591637702,-15.4956750869751,0.310297071933746,-21.4995571944837,-14.9952411651611,0.204121321439743
432,-11.8393727514481,-15.4612789154053,0.28052169084549,-11.2547691444266,-14.988974571228,0.197837263345718
433,-12.8150678281782,-15.4178142547607,0.291992038488388,-21.4992867725442,-15.0873908996582,0.198533684015274
434,-12.9765932767989,-15.4025192260742,0.0135685969144106,-6.85199947985523,-15.0190963745117,0.0271560121327639
435,-10.9801084785847,-15.3543558120728,0.304255723953247,-12.3520596980969,-15.0517549514771,0.184764385223389
436,-14.9981307395721,-15.3543519973755,0.193464040756226,-11.9970872180135,-15.0217447280884,0.116927020251751
437,-17.2036598435128,-15.3719024658203,0.211966648697853,-16.6127507526037,-15.0396661758423,0.125326901674271
438,-9.31411838345786,-15.3715410232544,0.320864081382751,-19.4993357917255,-15.0400581359863,0.201080411672592
439,-18.1989760794953,-15.3856639862061,0.306734502315521,-18.2491143889674,-15.031834602356,0.215127140283585
440,-12.8708791452565,-15.349814414978,0.289416879415512,-20.249065369786,-15.1043128967285,0.170577749609947
441,-5.74564027432687,-15.3131408691406,0.265603542327881,-14.7438929862092,-15.1242141723633,0.184587597846985
442,-17.7382056691555,-15.3026037216187,0.308502584695816,-14.4026564806605,-15.0906867980957,0.196975737810135
443,-15.3787631160793,-15.305136680603,0.303915143013,-14.1804897652692,-15.0852346420288,0.214555457234383
444,-14.9660650331639,-15.2949199676514,0.285630494356155,-14.2163953272666,-15.1400423049927,0.196060821413994
445,-16.4986225642697,-15.301230430603,0.286490201950073,-16.4986225642697,-15.1550426483154,0.201733559370041
446,-18.9564786488684,-15.3082799911499,0.297164291143417,-8.68817396648362,-15.122950553894,0.199462100863457
447,-11.286035739587,-15.2535257339478,0.286605596542358,-16.6106576920916,-15.1145706176758,0.208041340112686
448,-13.5477642188364,-15.2486000061035,0.271142095327377,-8.1005904027269,-15.0914583206177,0.170471578836441
449,-17.9991143889674,-15.2219305038452,0.254091411828995,-16.4988929862092,-15.1163244247437,0.184040904045105
450,-21.4995571944837,-15.2552671432495,0.307094663381577,-11.1965591497434,-15.1209926605225,0.210297986865044
451,-16.4988929862092,-15.2281703948975,0.251284331083298,-13.4973086207717,-15.0970277786255,0.19444939494133
452,-12.8108017609658,-15.2205829620361,0.415509343147278,-16.6594858545359,-15.12646484375,1.13190388679504
453,-12.36403341729,-15.1932878494263,0.279500514268875,-8.23981313529075,-15.0875682830811,0.224090322852135
454,-13.0652396307883,-15.1700782775879,0.30472719669342,-16.3405599433592,-15.0911884307861,0.23078615963459
455,-8.79292107675214,-15.1350288391113,0.157138839364052,-11.6789053998317,-15.0341157913208,0.196645393967628
456,-11.2467004688126,-15.0883493423462,0.277267962694168,-12.6640816348843,-15.005223274231,0.217960834503174
457,-20.249065369786,-15.0833463668823,0.297628283500671,-10.0379238649034,-14.9721546173096,0.243371337652206
458,-14.4524925098306,-15.0892610549927,0.296858191490173,-16.3437806758886,-14.959454536438,0.243206486105919
459,-15.0436225642697,-15.0699968338013,0.257684022188187,-7.15099467727365,-14.8654651641846,0.221667498350143
460,-15.8776060090791,-15.0706481933594,0.286396354436874,-12.4551050721261,-14.8220462799072,0.225049391388893
461,-11.9979583559952,-15.053448677063,0.295705527067184,-17.9991143889674,-14.8561716079712,0.238133504986763
462,-16.4986225642697,-15.0720624923706,0.299812823534012,-16.4988929862092,-14.8463411331177,0.239342719316483
463,-16.4986225642697,-15.0487251281738,0.253576368093491,-13.4979093368139,-14.833776473999,0.236370876431465
464,-15.7223557939774,-15.0402145385742,0.296445906162262,-14.9194537930905,-14.8742704391479,0.225902646780014
465,-12.8395241928034,-15.0071258544922,0.312222242355347,-18.0768454814043,-14.8814601898193,0.281632035970688
466,-16.4988929862092,-14.9999837875366,0.35736870765686,-13.4979093368139,-14.8861408233643,0.283326029777527
467,-12.2607197762221,-14.9644956588745,0.384845674037933,-11.1088632952488,-14.8828058242798,0.289043217897415
468,-16.044599575764,-14.9614677429199,0.133203640580177,-15.9215281820708,-14.8789567947388,0.169815540313721
469,-11.5032120854548,-14.9500942230225,0.269578129053116,-3.28348557925768,-14.7785692214966,0.260804623365402
470,-15.7484011615116,-14.920090675354,0.354351907968521,-17.1243357917255,-14.7670927047729,0.291394978761673
471,-11.7762046230986,-14.8926382064819,0.332570105791092,-9.14956142156579,-14.710470199585,0.231766566634178
472,-14.383286049793,-14.8505163192749,0.370540767908096,-3.6515989840566,-14.5968036651611,0.305144727230072
473,-20.2952889018008,-14.9085559844971,0.37808546423912,-17.4287220158084,-14.5529947280884,0.26563236117363
474,-16.0682478249189,-14.8806838989258,0.611189603805542,-11.4304378232695,-14.5232715606689,0.465825945138931
475,-16.2488929862092,-14.8870067596436,0.172134265303612,-19.1500534950748,-14.5656967163086,0.18231987953186
476,-16.4986225642697,-14.8870048522949,0.246605888009071,-17.9988439670279,-14.5957002639771,0.217405527830124
477,-14.3244881180333,-14.9137144088745,0.240444779396057,-14.88630372369,-14.5624151229858,0.185605183243752
478,-13.0277722794261,-14.9164514541626,0.377229601144791,-19.4993357917255,-14.5864162445068,0.237088814377785
479,-9.82912718716407,-14.8814668655396,0.398812085390091,-14.946723531503,-14.6326103210449,0.26770356297493
480,-13.8837290547154,-14.8545846939087,0.40665203332901,-13.9793335252305,-14.6358785629272,0.297607928514481
481,-24,-14.9145994186401,0.38272351026535,-16.7491143889674,-14.6575584411621,0.267193764448166
482,-8.99697470659996,-14.8802576065063,0.31719246506691,-13.4981797587534,-14.6830387115479,0.259670734405518
483,-21.9130206063743,-14.9226770401001,0.413055777549744,-13.9113727487045,-14.6930046081543,0.304380416870117
484,-16.1488929862092,-14.8953418731689,0.406417727470398,-15.7988929862092,-14.7453479766846,0.288240075111389
485,-18.2491143889674,-14.9012699127197,0.388667047023773,-11.2788546053792,-14.7111978530884,0.280523121356964
486,-18.3902335473365,-14.9730958938599,0.322149276733398,-14.1497658041643,-14.6781511306763,0.203388303518295
487,-12.9316117114161,-14.9490947723389,0.246046915650368,-10.5237144369484,-14.7049722671509,-0.0490040667355061
488,-19.4993357917255,-14.993350982666,0.386385500431061,-10.4959946772737,-14.6287679672241,0.308613121509552
489,-13.7156908811377,-15.0113153457642,0.387134045362473,-19.078775044062,-14.7248678207397,0.300292700529099
490,-15.5193332377815,-15.0238676071167,0.271260857582092,-15.6021422192487,-14.7207145690918,0.270740836858749
491,-9.87770197158456,-15.0215187072754,0.396860510110855,-12.7486225642697,-14.7265558242798,0.30478173494339
492,-19.9992867725442,-15.0177640914917,0.391227960586548,-11.8530623379396,-14.6901950836182,0.307375580072403
493,-13.4975790427112,-15.037766456604,0.371406555175781,-11.9979583559952,-14.6902084350586,0.312029600143433
494,-13.3055440186544,-15.0184240341187,0.0939452573657036,-6.89768793405576,-14.5978631973267,0.177967995405197
495,-15.6817934191096,-15.0253934860229,0.398994028568268,-14.7315279497119,-14.5763788223267,0.309101462364197
496,-12.7518562968268,-15.0176401138306,0.371916890144348,-13.0575887809033,-14.5117645263672,0.282945334911346
497,-15.9659868241707,-14.9840822219849,0.370115280151367,-15.9174644147806,-14.537899017334,0.28195509314537
498,-11.5987865297964,-14.9401073455811,0.387656450271606,-16.9377108801954,-14.5444469451904,0.314636141061783
499,-16.7221627161049,-14.940655708313,0.372343063354492,-14.8650149707454,-14.5515995025635,0.206646606326103
500,-16.5925723328926,-14.9637336730957,0.399670034646988,-18.8731675674265,-14.6013097763062,0.298021107912064
501,-15.0640732080465,-14.9607715606689,0.357815146446228,-6.83999205198219,-14.6210689544678,0.272633582353592
502,-17.7483521423302,-14.9357633590698,0.368730396032333,-11.7232275595244,-14.587815284729,0.442795425653458
503,-11.871107935549,-14.8882436752319,0.343570351600647,-18.4470710066384,-14.6021308898926,0.247792541980743
504,-16.4983521423302,-14.9186067581177,0.383979707956314,-11.997357639953,-14.5663347244263,0.314153492450714
505,-11.7549365155102,-14.8869819641113,0.390545666217804,-14.1245272876377,-14.5905179977417,0.299740940332413
506,-10.5407561779674,-14.8509159088135,0.31862810254097,-13.3294085904706,-14.6022930145264,0.22005657851696
507,-13.7975812890226,-14.8595886230469,0.877885580062866,-13.0119886777786,-14.6193685531616,1.20568287372589
508,-15.4658855518523,-14.8427000045776,0.354880005121231,-14.434300952338,-14.6356134414673,0.278305858373642
509,-10.8952991003172,-14.7705402374268,0.380746960639954,-16.4168098622184,-14.6846532821655,0.286936402320862
510,-11.9793594085141,-14.7542772293091,1.89336109161377,-16.6322201910151,-14.6572036743164,1.81186616420746
511,-13.3839426790748,-14.7435159683228,0.263536840677261,-11.9757229079656,-14.5970478057861,0.288045138120651
512,-20.2363992997468,-14.7908792495728,0.378944665193558,-18.1747743882167,-14.6417541503906,0.300145894289017
513,-14.6865732045223,-14.7755498886108,0.370808839797974,-9.57860351728556,-14.6167125701904,0.298082321882248
514,-10.0315084212072,-14.7160415649414,0.356469601392746,-10.4858324729945,-14.553427696228,0.298137605190277
515,-16.0702725384565,-14.7231903076172,0.386032700538635,-16.0462416118888,-14.5504150390625,0.720605492591858
516,-11.9974175121163,-14.7360925674438,0.310525387525558,-19.499065369786,-14.6002340316772,0.288737297058105
517,-15.1766801182266,-14.7625799179077,0.365339875221252,-16.7363030581516,-14.5916109085083,0.324104309082031
518,-8.69579360423775,-14.7149124145508,0.324080020189285,-11.9701288789376,-14.5872163772583,0.229920879006386
519,-17.4664566741339,-14.7054805755615,0.391588270664215,-12.5307394352243,-14.5579423904419,0.300474733114243
520,-9.5685157894421,-14.7083234786987,0.386607229709625,-10.299857388762,-14.4916133880615,0.314903080463409
521,-10.4965953933159,-14.7081022262573,0.386574000120163,-14.9984011615116,-14.4859914779663,0.30290761590004
522,-15.679347670789,-14.715781211853,0.3492172062397,-16.9298394954867,-14.517071723938,0.219109207391739
523,-16.4416431245995,-14.7422609329224,0.371253490447998,-11.7390672444006,-14.5076627731323,0.27377524971962
524,-17.4988439670279,-14.7814435958862,0.408104956150055,-14.8067776085961,-14.4988651275635,0.310050964355469
525,-11.9976879340558,-14.7514419555664,0.296361207962036,-16.4988929862092,-14.4871969223022,0.261020630598068
526,-10.4965953933159,-14.7372789382935,0.300294995307922,-16.4988929862092,-14.5119714736938,0.222183033823967
527,-12.3726149979895,-14.7236967086792,0.43126580119133,-15.748671583451,-14.4788513183594,0.324568063020706
528,-13.3434149547914,-14.7003889083862,0.418966174125671,-17.1875380389165,-14.5033187866211,0.323382437229156
529,-16.4988929862092,-14.7316083908081,0.315066784620285,-11.9976879340558,-14.4399719238281,0.278061717748642
530,-12.3849862006334,-14.6930160522461,0.39583632349968,-16.3849862006334,-14.4223775863647,0.372810572385788
531,-13.8970252516709,-14.6498537063599,0.386975646018982,-10.5446423674791,-14.3885860443115,0.300659269094467
532,-11.0325470798194,-14.6034097671509,1.3935375213623,-12.8460106026367,-14.3642330169678,1.29326069355011
533,-14.2491143889674,-14.5984258651733,0.416105419397354,-12.551972590083,-14.3879327774048,0.309880018234253
534,-18.2491143889674,-14.5927267074585,0.426178127527237,-19.4484098657996,-14.3880090713501,0.326125890016556
535,-12.1262279584707,-14.5548667907715,0.434530287981033,-12.592304762077,-14.3828840255737,0.360376477241516
536,-11.0668932090458,-14.5386571884155,0.407831490039825,-2.93155468047997,-14.2824363708496,0.349805235862732
537,-9.16997696923422,-14.5047740936279,0.443786025047302,-7.42710992129366,-14.2470817565918,0.353619813919067
538,-14.7123761322766,-14.5114421844482,0.365150094032288,-18.78023466813,-14.2806262969971,0.270792901515961
539,-19.0838233263516,-14.5286750793457,0.424377232789993,-10.4700568288923,-14.2404346466064,0.338332533836365
540,-15.3015245651566,-14.5833921432495,0.402774035930634,-24,-14.2504377365112,0.27369686961174
541,-12.9032347806009,-14.5503025054932,0.427644282579422,-17.1855049215117,-14.2577934265137,0.362178713083267
542,-11.9964865019713,-14.4869499206543,0.274232357740402,-7.4967533038418,-14.2235431671143,0.275880068540573
543,-13.5845179230973,-14.4763870239258,0.0396897457540035,-11.9505265709252,-14.1768159866333,0.12796950340271
544,-13.2429588417644,-14.4577932357788,0.420601218938828,-18.9972391128153,-14.2065896987915,0.368044883012772
545,-14.1414492898538,-14.4320755004883,0.388341039419174,-13.9275455465383,-14.2194595336914,0.277661949396133
546,-16.0603683960453,-14.420823097229,0.333009868860245,-8.05446426719385,-14.1898813247681,0.322864562273026
547,-12.6775209872994,-14.4612503051758,0.433702528476715,-21.9997785972418,-14.2098875045776,0.366690874099731
548,-11.2084722477812,-14.44651222229,0.333926945924759,-9.13008989441355,-14.1378383636475,0.336928993463516
549,-8.40035868858686,-14.3967885971069,0.368924796581268,-15.0162696230932,-14.1438035964966,0.324742823839188
550,-11.996816796074,-14.3654117584229,0.372432768344879,-11.9974175121163,-14.1580486297607,0.348415374755859
551,-12.2045451823425,-14.3121480941772,0.97062212228775,-6.51942979642031,-14.1600475311279,0.80059015750885
552,-16.067074804391,-14.3195276260376,0.43374240398407,-16.8988929862092,-14.1793994903564,0.464282244443893
553,-18.6820968770234,-14.3773078918457,0.364638835191727,-9.89186782823565,-14.1376676559448,0.143768012523651
554,-14.5171981539928,-14.4041051864624,0.451796889305115,-14.9310024105187,-14.1372213363647,0.371705114841461
555,-11.1886328159455,-14.4101467132568,0.425217777490616,-16.124006100196,-14.1353044509888,0.340662240982056
556,-18.5822048725055,-14.4440393447876,0.389510631561279,-14.5474647451634,-14.1022920608521,0.339548856019974
557,-9.72962870569092,-14.3859004974365,0.366361677646637,-14.4006713847864,-14.1245231628418,1.3995167016983
558,-11.9979583559952,-14.3859014511108,0.398544818162918,-17.9991143889674,-14.1545324325562,0.365949749946594
559,-15.5846086752152,-14.4154930114746,0.452408581972122,-14.7236120873328,-14.1404266357422,0.368451952934265
560,-18.0573526693627,-14.4515104293823,2.50637197494507,-7.1105194439488,-14.0659370422363,2.29381227493286
561,-13.1838120829831,-14.4324836730957,0.461846619844437,-19.008459271635,-14.0875129699707,0.371774315834045
562,-11.8883425466583,-14.4544563293457,0.414842188358307,-14.1064960976432,-14.0578317642212,0.361305356025696
563,-17.5613095109186,-14.454493522644,0.400207579135895,-12.3810575688404,-14.0187892913818,0.313276886940002
564,-11.668410271532,-14.4266376495361,0.421562284231186,-14.9067877230513,-14.0368814468384,0.349736988544464
565,-16.5500293498456,-14.4464874267578,0.397030234336853,-10.4695002459048,-13.9721775054932,0.32530015707016
566,-14.2628792523669,-14.4569005966187,0.397577702999115,-15.1893317802717,-13.9619302749634,0.350315421819687
567,-14.9981307395721,-14.4732322692871,0.415920972824097,-13.4975790427112,-13.983717918396,0.347534626722336
568,-13.4981797587534,-14.4282255172729,0.340729236602783,-17.9988439670279,-13.9755096435547,0.318346261978149
569,-6.45174156390357,-14.3746919631958,0.410576969385147,-17.4033894215733,-13.9910774230957,0.333162873983383
570,-10.4965953933159,-14.3182287216187,0.446069151163101,-14.9981307395721,-14.0737648010254,0.372809380292892
571,-17.4134671621097,-14.3363037109375,0.425322592258453,-17.3126737542619,-14.0800647735596,0.334715962409973
572,-14.0905670601291,-14.3302536010742,0.392376184463501,-16.2486225642697,-14.068395614624,0.312696158885956
573,-12.9901349980852,-14.292197227478,0.386633664369583,-19.4066528648963,-14.1352033615112,0.305885195732117
574,-18.7530455665767,-14.3610124588013,0.387044697999954,-19.2786269619255,-14.1786279678345,0.30829519033432
575,-8.57787813077055,-14.2782001495361,0.333042830228806,-11.1735275649689,-14.123122215271,0.290636837482452
576,-15.242979311306,-14.3098440170288,0.395537078380585,-15.1271048365931,-14.1039781570435,0.373455315828323
577,-17.2755849772027,-14.3477182388306,0.443045079708099,-18.0608790948497,-14.1522006988525,0.405772835016251
578,-11.9960830798432,-14.3065395355225,0.292103618383408,-19.4993357917255,-14.1972427368164,0.321541368961334
579,-11.1212916893286,-14.2557811737061,0.453819125890732,-18.4360024583922,-14.21217918396,0.403729140758514
580,-19.1967042127781,-14.2337617874146,2.55221891403198,-5.57592207502101,-14.1393604278564,2.63340091705322
581,-16.4424571651713,-14.2535486221313,0.441471546888351,-21.9997785972418,-14.1426954269409,0.343931972980499
582,-11.9979583559952,-14.2546062469482,0.367190212011337,-13.4973086207717,-14.1576452255249,0.351752728223801
583,-9.82636485948946,-14.2346811294556,0.478645026683807,-16.107326721149,-14.1216993331909,0.386596173048019
584,-18.2491143889674,-14.2698307037354,0.424195438623428,-8.15087097735446,-14.1303577423096,0.325981438159943
585,-16.7961440919377,-14.3086032867432,0.447173237800598,-17.7295338115275,-14.1662073135376,0.408097207546234
586,-15.6164982119381,-14.3127250671387,0.431323885917664,-8.66677633718451,-14.1440057754517,0.402913480997086
587,-9.73594723085665,-14.2629413604736,0.240751802921295,-13.3202642135853,-14.1220560073853,0.334039062261581
588,-9.41719384326044,-14.2636280059814,0.438364118337631,-20.2493357917255,-14.1270561218262,0.380919277667999
589,-12.6047309329096,-14.2263326644897,0.340734511613846,-15.7237998692343,-14.1102199554443,0.340664654970169
590,-15.3071591496356,-14.2425746917725,0.424726545810699,-15.8161875596991,-14.0806674957275,0.357872396707535
591,-20.4014559286609,-14.3402795791626,0.422090828418732,-11.675616351385,-14.0602130889893,0.373441308736801
592,-13.6354979357051,-14.3129281997681,0.0434141159057617,-19.0735293401126,-14.0913524627686,0.0813142955303192
593,-14.6324744003524,-14.3079538345337,0.437411814928055,-15.5697269837035,-14.1006135940552,0.419777423143387
594,-16.4986225642697,-14.3181705474854,0.45349708199501,-8.99503955828464,-14.0658054351807,0.404551565647125
595,-20.6106683055948,-14.3455839157104,0.452965795993805,-20.6106683055948,-14.0932197570801,0.42636513710022
596,-21.4995571944837,-14.3625392913818,0.449288904666901,-14.998671583451,-14.1352882385254,0.392215549945831
597,-11.9960830798432,-14.3672723770142,0.428056865930557,-14.9984011615116,-14.1245393753052,0.402597576379776
598,-16.9455613397799,-14.3899230957031,0.45974925160408,-14.7437909453929,-14.1688280105591,0.390659391880035
599,-12.1152261015347,-14.3506984710693,0.45573878288269,-12.1663186422746,-14.1399450302124,0.405540645122528
600,-10.8852150793046,-14.2799367904663,4.67848253250122,-11.124621665581,-14.1394643783569,3.69528031349182
601,-13.4774336129334,-14.2597932815552,0.44825753569603,-16.0956813877991,-14.1567869186401,0.410727173089981
602,-17.4416431245995,-14.2906656265259,0.438610106706619,-14.9409298971437,-14.1453304290771,0.413439244031906
603,-11.1917695023431,-14.2828502655029,0.438697069883347,-12.132984653911,-14.1712837219238,0.567062616348267
604,-11.6179663388926,-14.2732019424438,1.42179238796234,-9.28565764781965,-14.1242513656616,1.61688923835754
605,-8.91532819180138,-14.2740173339844,0.419806271791458,-14.5304696980277,-14.1432619094849,0.36042246222496
606,-11.3265478344665,-14.2745494842529,0.448139995336533,-13.3655016315909,-14.1479396820068,0.44329446554184
607,-11.3568565013449,-14.2152681350708,0.448076784610748,-13.5251390498214,-14.1711864471436,0.392484158277512
608,-9.45964445579488,-14.1819820404053,0.422151833772659,-7.70333853520448,-14.1135835647583,0.42293256521225
609,-13.186505828042,-14.1696014404297,0.411029726266861,-11.5861204597572,-14.1431512832642,0.307261139154434
610,-21.4995571944837,-14.2070817947388,0.437196433544159,-14.4019374813968,-14.1561298370361,0.383598983287811
611,-12.1646250226619,-14.2081937789917,0.445656508207321,-16.8448686950743,-14.1484355926514,0.38340812921524
612,-12.9783212789995,-14.1847248077393,0.428314477205276,-7.48447800934675,-14.088339805603,0.371745645999908
613,-13.8271192656179,-14.1669139862061,4.92416572570801,-14.0837471779282,-14.0922441482544,4.13245820999146
614,-13.0228599415876,-14.1489171981812,0.459192365407944,-12.284696612686,-14.0746793746948,0.384414523839951
615,-8.51206352230595,-14.1200666427612,0.398167103528976,-15.5051955072176,-14.0575361251831,0.356502175331116
616,-11.1060152834516,-14.0841150283813,0.421063125133514,-12.3589591062086,-14.0499429702759,0.317787975072861
617,-10.7906144980644,-14.074315071106,0.457665055990219,-16.2051443034002,-14.0839176177979,0.38220950961113
618,-16.0458885825157,-14.0743227005005,0.0407830402255058,-16.8115257900762,-14.0898504257202,0.0365757048130035
619,-6.66487903618738,-14.042067527771,0.410439610481262,-15.8281612788921,-14.1734809875488,0.351670891046524
620,-14.4986225642697,-14.0337371826172,0.423460215330124,-12.012004643546,-14.1393995285034,0.353196233510971
621,-13.4979093368139,-14.0452146530151,0.294013559818268,-8.9966444124972,-14.1383810043335,0.289583593606949
622,-10.9794164131765,-14.0225229263306,0.448620170354843,-15.2470381988322,-14.2156839370728,0.375365406274796
623,-9.48613156598231,-13.95046043396,0.477030813694,-16.5889840100528,-14.2100858688354,0.387486666440964
624,-12.8458037589142,-13.9289779663086,0.432894647121429,-7.06867369996801,-14.1810073852539,0.342453926801682
625,-13.4979093368139,-13.9106378555298,0.362087458372116,-14.9984011615116,-14.1533298492432,0.352997541427612
626,-20.5639031860449,-13.9377393722534,2.96980929374695,-16.1771630284033,-14.1411848068237,2.35708022117615
627,-16.9399038626516,-13.9551753997803,0.449016392230988,-9.10930863656075,-14.1026706695557,0.384988248348236
628,-4.27024282320619,-13.8967924118042,0.456454992294312,-8.21337562220669,-14.0274314880371,0.384010046720505
629,-14.9981307395721,-13.9312534332275,0.341766774654388,-11.9976879340558,-14.0077714920044,0.301325917243958
630,-17.5971806873099,-13.9560089111328,0.426506698131561,-15.3759648094136,-14.0170831680298,0.308773756027222
631,-11.6800599991629,-13.8738765716553,0.451042830944061,-10.9556550475219,-13.9784603118896,0.426843613386154
632,-12.3714033127175,-13.8963718414307,0.463156819343567,-17.7486225642697,-14.006796836853,0.40916046500206
633,-14.0779035050322,-13.8441371917725,0.3984255194664,-6.80961890185398,-13.9594497680664,0.120411112904549
634,-11.8575105833774,-13.8155288696289,0.461108148097992,-12.8818072306306,-13.9400033950806,0.401381969451904
635,-17.9988439670279,-13.8138608932495,0.453573703765869,-16.4988929862092,-13.9748029708862,0.412197917699814
636,-11.938903237885,-13.7708530426025,0.481480568647385,-13.2146661726429,-13.9685697555542,0.383635431528091
637,-14.177004574192,-13.7791538238525,0.461944401264191,-15.2614981007504,-14.0001544952393,0.370106905698776
638,-12.9312112659907,-13.7353677749634,0.440763205289841,-10.3061192028397,-13.9988880157471,0.308446645736694
639,-14.2165400450327,-13.7387056350708,0.416103810071945,-12.2802622779904,-13.9535646438599,0.3716921210289
640,-7.40376090919008,-13.6846027374268,0.470138996839523,-11.6835863466967,-13.9274415969849,0.446913033723831
641,-13.4979093368139,-13.7087373733521,0.475492864847183,-14.9984011615116,-13.9424409866333,0.440471291542053
642,-19.9276393862645,-13.7082605361938,0.465367019176483,-14.9262129313529,-13.9629278182983,0.411330789327621
643,-10.7513053427467,-13.6899509429932,0.392604202032089,-3.90446085557403,-13.908971786499,0.342700630426407
644,-8.3340224566635,-13.6568069458008,1.27174043655396,-17.2057012153147,-13.9776916503906,1.0431854724884
645,-16.7808045298124,-13.6641321182251,0.47009339928627,-18.7258616133218,-14.004319190979,0.419128656387329
646,-14.9984011615116,-13.6791095733643,0.479859530925751,-11.9976879340558,-13.9972562789917,0.440591484308243
647,-8.9966444124972,-13.6326484680176,0.475013881921768,-14.9984011615116,-13.9911260604858,0.454208672046661
648,-4.01012847013091,-13.5820560455322,0.497062146663666,-15.3610124059645,-13.9806156158447,0.425298690795898
649,-14.4296646973697,-13.5667734146118,0.435476332902908,-7.34685918331945,-13.9304933547974,0.355704486370087
650,-15.0711333867805,-13.5566301345825,0.521845161914825,-14.5586381984912,-13.9017305374146,0.444552600383759
651,-7.49394701754477,-13.5061626434326,0.519362688064575,-11.9970872180135,-13.9361114501953,0.452457547187805
652,-10.0365888910498,-13.4547510147095,3.36253070831299,-4.26779488182046,-13.8864097595215,2.55305981636047
653,-17.979451467619,-13.4954738616943,0.508666396141052,-11.7098366478501,-13.8414945602417,0.301838278770447
654,-19.4993357917255,-13.5154800415039,0.391964435577393,-10.495861677085,-13.8314847946167,0.38350448012352
655,-11.6730736505945,-13.5149345397949,0.423634499311447,-19.3794698582391,-13.8665170669556,0.330911040306091
656,-14.468641044131,-13.5411195755005,0.469762772321701,-17.2747241450649,-13.8928194046021,0.398775041103363
657,-16.6959909853223,-13.5604429244995,3.34173321723938,-9.39177504093747,-13.8686847686768,2.58928632736206
658,-11.9970872180135,-13.537317276001,0.535978853702545,-14.9984011615116,-13.8724451065063,0.459511697292328
659,-16.4986225642697,-13.5746746063232,0.529267907142639,-8.99664441249721,-13.8229789733887,0.469842433929443
660,-6.11987547215591,-13.5356111526489,0.551896691322327,-16.5925723328926,-13.8227128982544,0.449427306652069
661,-10.4968658152554,-13.5163640975952,0.585338175296783,-16.4986225642697,-13.8528642654419,0.500112235546112
662,-12.8084011615116,-13.4668436050415,0.531429827213287,-11.6116433542387,-13.8091115951538,0.414299547672272
663,-14.6653382501177,-13.4667015075684,0.523545145988464,-11.907482165519,-13.8246374130249,0.45116975903511
664,-18.4674208981085,-13.5229406356812,0.538931965827942,-12.1987025641153,-13.8360567092896,0.461469858884811
665,-16.9440904655224,-13.5287666320801,0.268129348754883,-8.82853582227677,-13.7879390716553,0.333096325397491
666,-14.8498014176926,-13.5477828979492,0.357586443424225,-10.2473086207717,-13.7262601852417,0.323330372571945
667,-9.38978240778253,-13.5092029571533,0.535358071327209,-9.96927884314667,-13.6811456680298,0.48187580704689
668,-9.73962341792672,-13.5161619186401,0.573489010334015,-15.5069575023382,-13.7047252655029,0.487070709466934
669,-15.8421376447813,-13.5053339004517,0.515816569328308,-21.9997785972418,-13.7678518295288,0.443645000457764
670,-12.4568500221128,-13.5245885848999,0.507849872112274,-7.7423821478168,-13.7508020401001,0.365230649709702
671,-18.5841269274214,-13.5785055160522,0.549337446689606,-20.1145423576884,-13.7849092483521,0.482537835836411
672,-14.6039347413458,-13.5713357925415,0.464209675788879,-12.6950563551084,-13.7566766738892,0.40899446606636
673,-14.0673845425931,-13.5555076599121,0.562739789485931,-19.4993357917255,-13.8084115982056,0.514319241046906
674,-17.7486225642697,-13.5571727752686,0.435673952102661,-9.15704926508615,-13.7707490921021,0.40087041258812
675,-10.3795897745466,-13.5463857650757,0.515847504138947,-11.318240081295,-13.7362108230591,0.430554747581482
676,-15.5954048135887,-13.5803775787354,0.586191236972809,-12.8835922183717,-13.7121076583862,0.274039208889008
677,-18.2491143889674,-13.619553565979,2.97333407402039,-14.0332112880938,-13.7006721496582,1.76726150512695
678,-16.7072565838047,-13.6419801712036,0.555911958217621,-17.9369627789091,-13.7056674957275,0.487377971410751
679,-21.4995571944837,-13.6753187179565,0.460680365562439,-19.4993357917255,-13.7556791305542,0.41957014799118
680,-14.3998830852191,-13.6887512207031,0.550803005695343,-15.0605037523885,-13.7468490600586,0.464711308479309
681,-18.9953250965384,-13.7227392196655,0.496059268712997,-16.997285665874,-13.7898664474487,0.370781481266022
682,-13.1738585259453,-13.7370147705078,0.483520030975342,-21.4995571944837,-13.8475570678711,0.377343356609344
683,-11.2294881699684,-13.7168827056885,0.514947652816772,-11.5308900391272,-13.8407506942749,0.436306774616241
684,-18.9988439670279,-13.7218818664551,0.525095820426941,-14.4972000685975,-13.8077421188354,0.447987526655197
685,-14.9984011615116,-13.7410306930542,0.427172780036926,-10.4968658152554,-13.7937726974487,0.424316167831421
686,-13.6441854756636,-13.7582111358643,0.469888687133789,-8.89374267014725,-13.8335208892822,0.403862833976746
687,-13.4984501806929,-13.7870683670044,0.334400236606598,-13.4981797587534,-13.8739938735962,0.353574067354202
688,-13.4973086207717,-13.7789678573608,0.360240638256073,-11.996816796074,-13.8287715911865,0.392006754875183
689,-11.5108667455726,-13.7284812927246,0.482031464576721,-10.9974175121163,-13.8322868347168,0.393385499715805
690,-19.4526691250589,-13.7561559677124,0.56426864862442,-16.4981307395721,-13.7822732925415,0.50775682926178
691,-13.5171862399773,-13.7602491378784,0.549342155456543,-13.246564951101,-13.7560138702393,0.469737142324448
692,-13.0231706492217,-13.7670927047729,0.540569424629211,-15.5677715004399,-13.8098211288452,0.448839902877808
693,-12.9669297587534,-13.762975692749,0.555033087730408,-14.9668807395721,-13.829930305481,0.493854522705078
694,-11.8254524860261,-13.7535257339478,0.681607306003571,-13.9077624925419,-13.7960014343262,0.421690851449966
695,-16.9983521423302,-13.7725715637207,0.519938886165619,-3.34549682384264,-13.7254543304443,0.389508098363876
696,-12.1475479879454,-13.7464876174927,0.511497676372528,-21.4995571944837,-13.8150882720947,0.43938422203064
697,-7.77355105229327,-13.7137937545776,0.525724589824677,-12.3218255003621,-13.7505683898926,0.410314500331879
698,-9.54227134152859,-13.7026853561401,0.479848057031631,-14.5898020771183,-13.7869663238525,0.474725812673569
699,-15.1986225642697,-13.7480058670044,0.53542149066925,-17.4738439670279,-13.8033494949341,0.428315818309784
700,-11.6826607070087,-13.7459115982056,0.566275835037231,-9.6021289731501,-13.7873811721802,0.471949279308319
701,-8.24708721801353,-13.7195291519165,0.52154278755188,-8.33615152954108,-13.7994937896729,0.40493255853653
702,-7.49182327833384,-13.6623620986938,0.483076065778732,-16.4988929862092,-13.7968263626099,0.446616262197495
703,-18.0594948546018,-13.6582117080688,0.548051536083221,-21.4995571944837,-13.874210357666,0.420811623334885
704,-12.3640985422036,-13.6438570022583,0.572601735591888,-16.9302995829033,-13.8875389099121,0.467275828123093
705,-15.2938066877848,-13.6712236404419,0.656078279018402,-10.5655993302981,-13.8504829406738,0.458770424127579
706,-13.4981797587534,-13.6373310089111,0.558762431144714,-14.9984011615116,-13.8534898757935,0.49272632598877
707,-18.9988439670279,-13.6991262435913,0.551358997821808,-12.5070002459048,-13.8408641815186,0.458984434604645
708,-7.4967533038418,-13.6691179275513,0.592524170875549,-10.4969256874186,-13.7908496856689,0.525261342525482
709,-9.54168056411992,-13.628830909729,0.46036884188652,-6.14347154363378,-13.7336492538452,0.409731954336166
710,-7.50562380337938,-13.5584859848022,0.565658628940582,-16.5576509743332,-13.796630859375,0.463916420936584
711,-16.2601168171433,-13.5789937973022,0.375681340694427,-20.249065369786,-13.8049011230469,0.353714913129807
712,-7.49514844962923,-13.5497074127197,0.530714631080627,-19.4993357917255,-13.8408527374268,0.500246047973633
713,-17.9991143889674,-13.5526266098022,0.438244551420212,-14.9984011615116,-13.858302116394,0.445002615451813
714,-11.2465953933159,-13.5498142242432,0.631613373756409,-11.6795150325059,-13.8367872238159,0.522638738155365
715,-9.3512347472942,-13.5018224716187,0.617406845092773,-12.9902974893131,-13.8535919189453,0.517607450485229
716,-15.8497701791917,-13.5124015808105,0.623352825641632,-13.3622148464727,-13.8414125442505,0.520381450653076
717,-7.65422252537492,-13.4634418487549,0.618724644184113,-12.1680331661262,-13.8325490951538,0.534826815128326
718,-14.1859484695622,-13.4680261611938,0.5736004114151,-12.7198986486595,-13.7973566055298,0.481637597084045
719,-7.055686686981,-13.472053527832,0.60745769739151,-9.38058341441448,-13.7438707351685,0.533960103988647
720,-10.1672785773306,-13.4698581695557,0.559453189373016,-18.1847869035872,-13.7651138305664,0.462297916412354
721,-9.96788316802531,-13.4202213287354,0.630502283573151,-11.0108458287926,-13.7231025695801,0.511152863502502
722,-15.3358495079483,-13.428524017334,0.574854373931885,-15.8230274324456,-13.7202634811401,0.51156359910965
723,-16.0623056307023,-13.4490041732788,0.121139548718929,-14.2660644247348,-13.6859941482544,0.174928605556488
724,-8.35036282124584,-13.3796529769897,0.598012089729309,-5.37956521303213,-13.593334197998,0.50408536195755
725,-17.4919715318245,-13.4390802383423,0.283219665288925,-13.7986225642697,-13.6108341217041,0.311838299036026
726,-10.4968658152554,-13.4074401855469,0.643577992916107,-11.9974175121163,-13.5899696350098,0.522779107093811
727,-17.9991143889674,-13.4122629165649,0.622073948383331,-11.9948566227124,-13.5495300292969,0.50728452205658
728,-16.4970177100572,-13.4422693252563,0.619423568248749,-8.99414339525657,-13.4794950485229,0.534643471240997
729,-17.8068070560933,-13.4868392944336,0.626344621181488,-16.3841718602317,-13.4658155441284,0.481465041637421
730,-13.9118210749315,-13.4516067504883,0.665888071060181,-13.5657711505506,-13.519082069397,0.524636089801788
731,-12.831978641435,-13.4275369644165,0.627539038658142,-2.2061250089245,-13.3871240615845,0.509016394615173
732,-16.4988929862092,-13.4575433731079,0.59931093454361,-13.4975790427112,-13.3871269226074,0.511864423751831
733,-14.030917624818,-13.4855737686157,0.586067855358124,-21.4992867725442,-13.4230728149414,0.506981611251831
734,-14.7471774775645,-13.4622278213501,0.647846221923828,-8.22794854488057,-13.4235868453979,0.560082256793976
735,-8.94952903662351,-13.4099168777466,1.08418643474579,-21.4995571944837,-13.4487199783325,1.62062859535217
736,-15.4894388908003,-13.4090700149536,0.67742383480072,-14.1183175000792,-13.4850635528564,0.535083711147308
737,-10.9709309195477,-13.4173021316528,0.659919142723083,1.17986367888635,-13.3883962631226,0.567747354507446
738,-11.9979583559952,-13.4345073699951,0.690719902515411,-11.9974175121163,-13.3333826065063,0.587820410728455
739,-9.01905516436779,-13.4106025695801,1.44163608551025,-8.0772226238306,-13.2824058532715,1.89602994918823
740,-12.3550521939568,-13.3909225463867,0.939855813980103,-5.20610899261955,-13.2116718292236,1.0648946762085
741,-12.0706435268693,-13.3353843688965,0.722483694553375,-17.1512883020108,-13.248176574707,0.57384330034256
742,-5.38691181351819,-13.2803926467896,0.656615972518921,-9.63387967084371,-13.185245513916,0.51541531085968
743,-15.698597128221,-13.2875003814697,0.676939249038696,-13.6436419976522,-13.1724052429199,0.549810945987701
744,-20.2493357917255,-13.3125038146973,0.652499914169312,-11.0813702261783,-13.1863136291504,0.533387541770935
745,-10.0585020058473,-13.2421569824219,0.621412813663483,-5.97891164131756,-13.0887689590454,0.458792239427567
746,-7.94197470659996,-13.1517724990845,0.601033985614777,-18.0041143889674,-13.1088056564331,0.482056617736816
747,-13.7475790427112,-13.1634492874146,1.42851173877716,-9.55793473507785,-13.0725345611572,1.22442972660065
748,-14.4981797587534,-13.1471338272095,0.568615674972534,-17.7486225642697,-13.0925674438477,0.494803249835968
749,-5.330566255784,-13.101902961731,0.607501029968262,-14.9413626226488,-13.1110677719116,0.451085478067398
750,-8.91447293814322,-13.0887641906738,0.599711120128632,-10.8016564468586,-13.1089143753052,0.494788467884064
751,-10.4974665312976,-13.0688982009888,0.664686262607574,-8.99577327451549,-13.0615816116333,0.573171615600586
752,-10.495861677085,-13.0225925445557,0.655553877353668,-13.4979093368139,-13.0519618988037,0.581579923629761
753,-13.9235411966757,-13.0408048629761,0.643322050571442,-15.0974289957089,-13.0717248916626,0.553425848484039
754,-14.9984011615116,-13.0633411407471,0.707620620727539,-14.9984011615116,-13.109808921814,0.601126611232758
755,-14.9984011615116,-13.1038961410522,0.507013082504272,-7.49555187175734,-13.0629091262817,0.500234842300415
756,-16.4986225642697,-13.1383752822876,0.738894104957581,-10.4974665312976,-13.0437889099121,0.636059880256653
757,-17.2507208332768,-13.1776685714722,0.690338134765625,-24,-13.113621711731,0.580329179763794
758,-11.9979583559952,-13.1945896148682,0.746881663799286,-13.4973086207717,-13.1522483825684,0.663786828517914
759,-9.37632871075478,-13.1691875457764,0.710115134716034,-11.7764100207706,-13.1535177230835,0.610669672489166
760,-19.3968967673353,-13.1551704406738,0.658351421356201,-21.1168517679735,-13.1982841491699,0.512526512145996
761,-6.04437247611668,-13.1143684387207,0.671737551689148,-10.5198256453769,-13.1561164855957,0.469656050205231
762,-19.4715580139477,-13.1576566696167,0.704544961452484,-8.99735763995301,-13.1662015914917,0.64128315448761
763,-17.9988439670279,-13.1854696273804,0.700526058673859,-16.4986225642697,-13.1823015213013,0.61786288022995
764,-9.48037163507757,-13.1618528366089,0.65739119052887,-14.3381787004949,-13.1959915161133,0.530493795871735
765,-16.2362571423451,-13.2133474349976,0.622302532196045,-10.7123938164087,-13.1640386581421,0.530819535255432
766,-11.8166319988747,-13.2180852890015,0.645920038223267,-12.1862700443069,-13.1628875732422,0.509941458702087
767,-10.4644235082165,-13.2159109115601,1.76090085506439,-11.6386278996882,-13.1324434280396,1.25418269634247
768,-5.28055523873486,-13.1441411972046,2.68653774261475,-11.506200114237,-13.097074508667,2.1775107383728
769,-6.56345499473397,-13.1434659957886,0.587615430355072,0.458802251713761,-12.9884948730469,0.496082246303558
770,-13.4981797587534,-13.1367959976196,0.513766050338745,-13.4981797587534,-12.9984035491943,0.516164124011993
771,-11.9843548739608,-13.1267051696777,0.677172124385834,-13.9845762767189,-13.0316562652588,0.553871512413025
772,-12.1560744955955,-13.1345500946045,4.20183324813843,-16.893359406375,-13.0426321029663,3.11986446380615
773,-4.18526328748564,-13.0992097854614,0.677345037460327,-18.2491143889674,-13.0536994934082,0.578382551670074
774,-13.4975790427112,-13.103554725647,0.604482591152191,-7.49514844962923,-13.0565433502197,0.603199362754822
775,-14.9067877230513,-13.1129474639893,0.663191676139832,-4.87006004705969,-12.9890213012695,0.583624601364136
776,-15.4935453926263,-13.0791454315186,0.622301697731018,-7.88298509396315,-12.93372631073,0.473549485206604
777,-12.812537287166,-13.0516290664673,1.15791809558868,-21.4992867725442,-13.0163269042969,2.01780819892883
778,-5.24122256229161,-13.0581026077271,0.884923994541168,-8.2924292520545,-13.0168533325195,0.70040637254715
779,-10.5714045159194,-13.0285911560059,0.677524209022522,-12.1324430964627,-13.0177516937256,0.614275634288788
780,-8.11801726913045,-12.9653959274292,0.669463992118835,-14.0887616735411,-13.0091695785522,0.580993354320526
781,-13.4981797587534,-12.9775171279907,0.649770498275757,-14.9984011615116,-13.0361213684082,0.61748468875885
782,-17.5735192917032,-13.0121974945068,0.697929263114929,-17.7483521423302,-13.0361194610596,0.601332664489746
783,-13.382629349431,-13.0075626373291,0.658128976821899,-10.4058824751257,-13.060094833374,0.564533650875092
784,-9.53647602237304,-12.9920902252197,0.636399924755096,-12.6961853956057,-13.0588569641113,0.457736700773239
785,-9.63183427551917,-12.9363098144531,0.661577641963959,-11.6183047212949,-13.0263204574585,0.593855500221252
786,-10.1548379549136,-12.9244155883789,0.618418991565704,-13.3274117409314,-13.0270719528198,0.474705189466476
787,-12.5149864814425,-12.9133358001709,0.613211512565613,-17.673213714927,-13.0431499481201,0.519510865211487
788,-12.980137182246,-12.9136610031128,0.635806322097778,-10.7234777850014,-13.0459327697754,0.514776587486267
789,-2.97060126698368,-12.8386888504028,0.730795502662659,-9.59319355203328,-13.0280179977417,0.499876439571381
790,-10.4233969524865,-12.8588199615479,0.682691514492035,-12.2251573934521,-13.0316286087036,0.597378849983215
791,-10.6826194409051,-12.840051651001,6.52384424209595,-12.0735712436881,-13.0121297836304,5.22240686416626
792,-17.0780617573884,-12.8210535049438,0.686160802841187,-11.4192323903323,-12.9887504577637,0.606283247470856
793,-13.4973086207717,-12.8393602371216,0.654930293560028,-10.4965953933159,-13.0326976776123,0.60166198015213
794,-17.6041439747662,-12.9011611938477,0.680835068225861,-7.07685636340469,-12.9651727676392,0.278108328580856
795,-8.43360356861825,-12.845513343811,0.690053462982178,-7.61753854104401,-12.8911170959473,0.628486037254333
796,-20.2230200022518,-12.8803443908691,0.590291500091553,-14.9584356526034,-12.9108552932739,0.45266580581665
797,-13.4169094488044,-12.9098129272461,0.643514752388,-5.12618999191111,-12.8450403213501,0.564700841903687
798,-8.09626340561681,-12.9370536804199,0.681380212306976,-15.7546466606553,-12.8476648330688,0.574865162372589
799,-13.5456917151818,-12.9311609268188,0.645026326179504,-10.7993992709485,-12.8706817626953,0.510700941085815
800,-16.4988929862092,-12.9406785964966,0.648212075233459,-10.4969256874186,-12.8436031341553,0.587690949440002
801,-10.2381797587534,-12.9589729309082,0.621915936470032,-13.5330218482275,-12.8538436889648,0.506155908107758
802,-13.961315261612,-12.9851379394531,0.656033098697662,-7.60606121755422,-12.8760986328125,0.549449861049652
803,-12.763542887245,-12.9503660202026,0.628509640693665,-6.96899272652478,-12.8444929122925,0.53626549243927
804,-11.3450909991396,-12.8960046768188,0.604887187480927,-14.1970637179165,-12.8691673278809,0.512498795986176
805,-12.0889032436244,-12.8987770080566,0.659296572208405,-18.3886051981182,-12.8625621795654,0.562127828598022
806,-14.9981307395721,-12.9023065567017,0.59808874130249,-13.4981797587534,-12.837384223938,0.573802649974823
807,-12.5453294891566,-12.8746347427368,4.92715454101562,-11.1536912639006,-12.8491306304932,3.36810064315796
808,-10.9919452749112,-12.8679342269897,0.616080641746521,-16.34170698156,-12.8580856323242,0.514176666736603
809,-8.19447113959253,-12.812572479248,0.647224009037018,-8.93119761249039,-12.8576498031616,0.555504024028778
810,-14.1796180927285,-12.866304397583,0.587908923625946,-18.1803313201843,-12.8682346343994,0.45419779419899
811,-11.1117595332109,-12.8704042434692,0.634382009506226,-9.9509253441277,-12.8245830535889,0.596986413002014
812,-11.9118700941128,-12.8644275665283,0.624038815498352,-11.3271840877577,-12.8226871490479,0.557890892028809
813,-15.4492801648594,-12.8696537017822,0.600244998931885,-12.6332372300178,-12.827525138855,0.505656003952026
814,-7.63994757626166,-12.7974710464478,0.550407350063324,-9.87601803562359,-12.8120412826538,0.445486217737198
815,-12.1877827545354,-12.7657613754272,4.00426626205444,-15.6913901170138,-12.8577928543091,2.38568782806396
816,-13.4981797587534,-12.7567510604858,0.709168970584869,-13.4975790427112,-12.8794612884521,0.64069664478302
817,-21.4992867725442,-12.8374805450439,0.607633650302887,-14.7572664097385,-12.9113807678223,0.53553432226181
818,-8.04393536748949,-12.8261756896973,0.510144650936127,-13.9403291811015,-12.9009370803833,0.463371902704239
819,-14.9952994282287,-12.8205318450928,0.670372486114502,-12.0087789020313,-12.8343305587769,0.580709099769592
820,-11.997357639953,-12.8174667358398,0.722778856754303,-4.49543936034376,-12.8126840591431,0.619625985622406
821,-4.31221058367612,-12.7223205566406,0.666451513767242,-12.3988834239213,-12.7612466812134,0.516443252563477
822,-14.998671583451,-12.7249526977539,0.541471183300018,-4.49576965444651,-12.7065849304199,0.498186469078064
823,-8.94768234983762,-12.6908206939697,0.648435711860657,-10.4155654788831,-12.6460266113281,0.563482642173767
824,-15.5663533036695,-12.6762733459473,1.06295883655548,-11.921681584792,-12.6644582748413,0.357178509235382
825,-11.3838450252864,-12.6829681396484,0.398216217756271,-15.391701109885,-12.691614151001,0.345865935087204
826,-8.50617812710444,-12.635705947876,0.664771676063538,-21.4995571944837,-12.7490539550781,0.505177319049835
827,-11.9976879340558,-12.594030380249,0.593032658100128,-13.4984501806929,-12.7454881668091,0.551698625087738
828,-11.9979583559952,-12.5626354217529,0.622122049331665,-13.4975790427112,-12.715892791748,0.587619066238403
829,-19.499065369786,-12.549298286438,0.74295312166214,-13.4981797587534,-12.6758842468262,0.654373407363892
830,-14.9199098806764,-12.5527648925781,0.716136872768402,-12.664265132124,-12.6599092483521,0.55271303653717
831,-14.1756711938711,-12.5206346511841,0.734960377216339,-14.998671583451,-12.6465864181519,0.639907360076904
832,-7.02722071658536,-12.4796562194824,0.706552028656006,-10.1000710320516,-12.5705890655518,0.656854271888733
833,-11.7797763091923,-12.4833250045776,0.701604843139648,-9.65580689081243,-12.5580883026123,0.595908880233765
834,-12.8871692360332,-12.4425802230835,0.699586093425751,-17.2878467833336,-12.5766925811768,0.613961935043335
835,-14.9984011615116,-12.4425802230835,0.772920191287994,-8.99697470659996,-12.5666933059692,0.688748896121979
836,-9.71888858855338,-12.4164123535156,0.309661656618118,-19.3362746721116,-12.6363105773926,0.253938943147659
837,-5.8562157562296,-12.3654632568359,0.639828145503998,-19.107814594718,-12.6737089157104,0.414373576641083
838,-10.0739371195329,-12.34264087677,0.721350371837616,-10.3080298050955,-12.662449836731,0.660493850708008
839,-9.99482699228708,-12.3325347900391,0.503239870071411,-12.2041007818416,-12.6704940795898,0.427319139242172
840,-10.1335121866725,-12.2704067230225,0.693138539791107,-10.4393949103212,-12.6301021575928,0.514713823795319
841,-14.3148006157091,-12.2757244110107,0.159114122390747,-13.599965045556,-12.6324586868286,0.182060495018959
842,-5.01956933900624,-12.2223663330078,0.646293103694916,-20.7495571944837,-12.6670036315918,0.399394512176514
843,-12.6570002459048,-12.2203006744385,1.02236342430115,-8.81586975223757,-12.6259965896606,0.534791231155396
844,-12.787418502552,-12.226713180542,0.668644845485687,-10.5734063914498,-12.6037683486938,0.604587078094482
845,-14.9407005689583,-12.2129955291748,0.700318157672882,-6.04325403707493,-12.6217527389526,0.441187262535095
846,-12.3173131947049,-12.2141275405884,1.77798175811768,-18.5444970820481,-12.6020526885986,1.33142566680908
847,-11.2988126701458,-12.2376298904419,0.742264270782471,-13.7104754971486,-12.6113090515137,0.634215772151947
848,-16.7038621634481,-12.2853746414185,0.717020034790039,-14.811187119394,-12.6127853393555,0.579913318157196
849,-9.00168759218054,-12.2440605163574,0.730949342250824,-13.3481797587534,-12.585280418396,0.610302031040192
850,-8.74318128593154,-12.2244644165039,0.609209835529327,-16.817585726547,-12.6333837509155,0.523849189281464
851,-7.77039522702007,-12.2212867736816,0.7117600440979,-10.8653349928793,-12.6502447128296,0.651559114456177
852,-12.0486925373249,-12.2516660690308,0.693053245544434,-14.1110311340128,-12.6343259811401,0.637183606624603
853,-13.7317633708907,-12.2228145599365,0.61630767583847,-13.3652804980262,-12.5800971984863,0.491982012987137
854,-2.46609711847494,-12.1568279266357,0.640898048877716,-17.8362923134646,-12.5861377716064,0.648719668388367
855,-11.5234011615116,-12.1316909790039,0.659455180168152,-20.3245571944837,-12.6511974334717,0.60643482208252
856,-9.98953747377621,-12.1083011627197,0.656534194946289,-12.3596114644735,-12.6336050033569,0.607497930526733
857,-11.9431160278955,-12.0612630844116,0.677405595779419,-11.787019628461,-12.6288051605225,0.644445538520813
858,-8.17326886813069,-12.0657730102539,0.644071638584137,-11.9872710389416,-12.6387414932251,0.602204978466034
859,-13.5186633800606,-12.09228515625,0.707534849643707,-13.5758432765419,-12.6882905960083,0.662299931049347
860,-6.89563278315464,-12.0882196426392,0.736776411533356,-2.59392199249842,-12.5951986312866,0.757965266704559
861,-5.74697470659996,-12.0181312561035,0.630508482456207,-11.2185127012822,-12.5349950790405,0.501355350017548
862,-8.88206269771339,-12.0273771286011,0.584490895271301,-15.9253438971641,-12.5111684799194,0.633773982524872
863,-13.4965749045408,-11.9973611831665,0.487758576869965,-10.4971961093581,-12.4811601638794,0.579009115695953
864,-11.9976879340558,-12.0023670196533,0.710125744342804,-17.9991143889674,-12.5232906341553,0.721971035003662
865,-4.82537069479545,-11.9721956253052,0.686517894268036,-8.07695506023296,-12.490535736084,0.633187592029572
866,-11.8039053998317,-11.9452228546143,0.717223644256592,-15.3281680188152,-12.5036420822144,0.659724712371826
867,-9.70174156390357,-11.958872795105,0.655884087085724,-7.4733164237277,-12.4723434448242,0.545474767684937
868,-17.0184518101651,-11.9777565002441,0.628485560417175,-12.1256307391456,-12.4683818817139,0.6629958152771
869,-12.9975790427112,-12.0173692703247,0.722520530223846,-13.6233521423302,-12.4966678619385,0.637779533863068
870,-15.1528281717464,-12.0506067276001,0.710394382476807,-6.42160763541754,-12.4182462692261,0.599999845027924
871,-13.2488929862092,-12.0724792480469,0.63213175535202,-10.9072706678443,-12.417555809021,0.654663860797882
872,-14.1220688386295,-12.0643882751465,0.73348730802536,-13.1975069101346,-12.4000520706177,0.640111565589905
873,-13.4079710061961,-12.0466928482056,0.692328333854675,-15.758537578434,-12.4100017547607,0.585192561149597
874,-13.4981797587534,-12.0810117721558,0.800668895244598,-13.4975790427112,-12.4641218185425,0.71391099691391
875,-10.4874457456799,-12.0343151092529,0.743699967861176,-13.9105658565788,-12.4648685455322,0.499357610940933
876,-10.9263355193951,-12.0371780395508,0.705777287483215,-8.93770452183324,-12.4444704055786,0.641657590866089
877,-8.33298108461587,-11.9727363586426,0.762489438056946,-8.80124760015599,-12.4231796264648,0.656631886959076
878,-3.06297438414918,-11.8831758499146,0.751765429973602,-1.26292041769422,-12.3716382980347,0.655310034751892
879,-4.95900973065671,-11.7975244522095,0.711286962032318,-15.5914797071269,-12.3663539886475,0.515408158302307
880,-11.9712423871383,-11.7845878601074,0.71442836523056,-13.9018259068881,-12.3685941696167,0.605361878871918
881,-12.2772495261953,-11.7808885574341,0.700355052947998,-18.0330567219581,-12.4741067886353,0.523050725460052
882,-10.4965953933159,-11.740873336792,0.596127510070801,-10.4974665312976,-12.4541063308716,0.54142153263092
883,-20.2493357917255,-11.7823295593262,0.686241447925568,-17.5999915819498,-12.4281101226807,0.498939573764801
884,-11.9979583559952,-11.7640018463135,0.669555485248566,-11.9979583559952,-12.4532442092896,0.66773933172226
885,-12.7957988063724,-11.7896423339844,1.23742008209229,-3.65009237376108,-12.3342475891113,1.36353313922882
886,-13.1433633568632,-11.7740020751953,0.692794561386108,-14.6236225642697,-12.3376159667969,0.587448358535767
887,-9.55298227944021,-11.7645502090454,0.494608253240585,-10.3033073137073,-12.4141702651978,0.576229691505432
888,-8.8149770798208,-11.7433300018311,5.30290365219116,-4.66419524287673,-12.3652830123901,3.73539447784424
889,-6.42954230738941,-11.7260656356812,0.726826965808868,-8.00676680535438,-12.3648128509521,0.680595576763153
890,-8.4089782566364,-11.6997594833374,0.745355188846588,-16.9988929862092,-12.443431854248,0.692634522914886
891,-1.78426715923121,-11.6311836242676,0.757642984390259,-10.629615160729,-12.3999538421631,0.713855445384979
892,-10.90238536623,-11.6679534912109,0.711178481578827,-6.05439923411034,-12.376091003418,0.649589836597443
893,-4.79458346456138,-11.5952596664429,0.719126164913177,-5.47364671783045,-12.3216247558594,0.712984085083008
894,-14.4094223623037,-11.5563268661499,2.11056780815125,-9.32744402658876,-12.3099317550659,2.56529688835144
895,-13.1397055093376,-11.576868057251,0.67949914932251,-11.008336096515,-12.3434610366821,0.61868804693222
896,-5.68083867422653,-11.5617933273315,0.722699344158173,-10.9262913467362,-12.2962760925293,0.628088235855103
897,-10.1394187707762,-11.5377388000488,0.698141574859619,-11.8717928791892,-12.3117017745972,0.64512312412262
898,-11.6512916893286,-11.5187606811523,0.708556652069092,-16.4975300235298,-12.3033609390259,0.692865550518036
899,-11.8171636309853,-11.5620050430298,0.658352196216583,-11.0645751273774,-12.277515411377,0.577610552310944
900,-3.52209263799987,-11.5260553359985,0.653691411018372,-12.0323261002168,-12.285719871521,0.594791948795319
901,-7.24735763995301,-11.5043878555298,0.78155642747879,-17.1842372254548,-12.3403091430664,0.690048635005951
902,-9.43953531996449,-11.4973459243774,0.666787505149841,-19.4993357917255,-12.3803186416626,0.657566785812378
903,-13.3089274223048,-11.4932489395142,0.664018094539642,-20.1233889701846,-12.4138250350952,0.63327693939209
904,-12.6683073579117,-11.4777145385742,0.677224934101105,-13.0778942490692,-12.4010210037231,0.64065283536911
905,-11.9976879340558,-11.4577102661133,0.513627171516418,-16.497751426288,-12.4610357284546,0.614589989185333
906,-17.9991143889674,-11.4677133560181,0.75145149230957,-10.4968658152554,-12.4610328674316,0.732007801532745
907,-10.7652529294851,-11.4244766235352,0.679389953613281,-15.0069377468774,-12.4010791778564,0.599152028560638
908,-11.1066062090617,-11.4185342788696,0.67114269733429,-8.7727810510307,-12.3695821762085,0.629571497440338
909,-13.5312802791032,-11.4462337493896,0.728720366954803,-17.085800488767,-12.4049787521362,0.684365212917328
910,-6.14805607890356,-11.3579082489014,0.668259263038635,-10.767822210278,-12.3359842300415,0.66574639081955
911,-10.4963249713764,-11.3875875473022,0.655390441417694,-10.4968658152554,-12.3358316421509,0.709621787071228
912,-10.4990242563138,-11.3277711868286,0.747745931148529,-14.7456813877991,-12.3741540908813,0.699328780174255
913,-11.9982287779347,-11.2877674102783,0.804558277130127,-10.4962650992131,-12.3341379165649,0.773193120956421
914,-10.3446664213519,-11.293529510498,0.694417119026184,-16.8874639035305,-12.3511323928833,0.571798980236053
915,-11.4563295384891,-11.2616624832153,0.705860197544098,-7.52637131447056,-12.3298921585083,0.554603695869446
916,-8.17126636500178,-11.2373600006104,0.750622749328613,-11.1773211015198,-12.323166847229,0.745909035205841
917,-10.1232287779347,-11.2350854873657,0.78618723154068,-9.02893793405576,-12.3057689666748,0.761233448982239
918,-13.372624763996,-11.2890319824219,0.733898401260376,-18.9988439670279,-12.3557205200195,0.679632008075714
919,-8.99697470659995,-11.3052558898926,0.644212365150452,-7.494547733587,-12.4087429046631,0.692737817764282
920,-7.49615258779956,-11.2652425765991,0.597531676292419,-11.9976879340558,-12.3987398147583,0.672974526882172
921,-16.9986225642697,-11.2986717224121,0.787974417209625,-19.2361778969887,-12.4337501525879,0.742255926132202
922,-4.52570147850961,-11.247802734375,4.43289995193481,-8.68417539205709,-12.3790225982666,2.7964026927948
923,-17.9991143889674,-11.3398942947388,0.794239103794098,-16.4988929862092,-12.3673543930054,0.765587747097015
924,-15.519062815842,-11.3533706665039,0.748588025569916,-14.5204137401279,-12.4141893386841,0.565379619598389
925,-6.81142974801109,-11.2994022369385,0.782348096370697,-14.1041561441039,-12.4757490158081,0.699977517127991
926,-13.4984501806929,-11.2861022949219,0.852104783058167,-17.9988439670279,-12.5431880950928,0.800067782402039
927,-13.1499743585128,-11.28835105896,0.97679477930069,-11.3747209310168,-12.4756917953491,0.642779350280762
928,-10.3875315962942,-11.3226594924927,0.795048594474792,-9.81557106310122,-12.4858455657959,0.765484631061554
929,-10.181881416212,-11.3200626373291,0.750161468982697,-12.57686002134,-12.4888076782227,0.711233079433441
930,-13.3911788679143,-11.3552169799805,0.72973507642746,-12.5957733416411,-12.4788551330566,0.569098770618439
931,-8.62417886006472,-11.3227233886719,7.88855075836182,-11.3233008217487,-12.4543542861938,7.11470127105713
932,-8.99637399055772,-11.2655429840088,0.867247700691223,-7.49615258779957,-12.3860063552856,0.814935564994812
933,-8.99724512853944,-11.236307144165,0.858898937702179,-8.99637399055772,-12.3766098022461,0.803041160106659
934,-9.18989383986621,-11.2339963912964,0.421661227941513,-16.5728161126568,-12.4024534225464,0.371105402708054
935,-10.3015621112681,-11.2384614944458,0.870749413967133,-12.9012426701472,-12.4110069274902,0.798572719097137
936,-7.49588216586008,-11.2207345962524,0.879122138023376,-10.4974665312976,-12.3921403884888,0.845917105674744
937,-14.9984011615116,-11.2372903823853,0.968311011791229,-13.4975790427112,-12.3643016815186,0.857847571372986
938,-13.4975300235298,-11.240740776062,0.897018611431122,-7.84926936396813,-12.3451414108276,0.835435450077057
939,-8.99637399055773,-11.280912399292,0.795722961425781,-11.9945862007729,-12.3611507415771,0.720461547374725
940,-15.2880962484802,-11.3133430480957,0.855990588665009,-16.9109032660241,-12.3923892974854,0.622446298599243
941,-9.94832717238698,-11.3084487915039,0.856429874897003,-10.7484011615116,-12.3835544586182,0.583148837089539
942,-9.02245269289105,-11.2547445297241,0.853478193283081,-15.9005212984469,-12.4134302139282,0.734438955783844
943,-12.9855439148893,-11.2513332366943,0.867146074771881,-12.8957304069805,-12.4294242858887,0.754388809204102
944,-17.9369627789091,-11.2535514831543,0.825176537036896,-17.3429033729685,-12.4978637695312,0.767020523548126
945,-18.9985735450884,-11.3239841461182,0.812828540802002,-16.9988929862092,-12.5604057312012,0.576392292976379
946,-8.98317741776933,-11.2490520477295,0.817672431468964,-14.5923509301344,-12.5579662322998,0.67603063583374
947,-9.24686581525537,-11.2212514877319,0.756503522396088,-15.8852566225728,-12.629693031311,0.597088992595673
948,-11.9108435142119,-11.2466821670532,0.75382399559021,-8.26275037409236,-12.5797481536865,0.539600551128387
949,-18.5999275077018,-11.2803764343262,0.80085700750351,-11.7766563439029,-12.5862617492676,0.662595510482788
950,-16.4758952915424,-11.2802238464355,1.1641788482666,-11.3158697522376,-12.591721534729,0.966742753982544
951,-5.99432633082884,-11.2519311904907,0.923957169055939,-11.9963535017827,-12.5814771652222,0.843820333480835
952,-13.4979093368139,-11.2488422393799,0.873099088668823,-8.99637399055773,-12.590744972229,0.860161602497101
953,-12.0817082194955,-11.2442970275879,0.784009575843811,-3.04966674255357,-12.5646171569824,0.752924203872681
954,-4.07834120367248,-11.1958522796631,0.825702369213104,-9.41489860214061,-12.532735824585,0.851040542125702
955,-11.1710830798432,-11.189733505249,0.862415254116058,-22.7497785972418,-12.5618104934692,0.74556177854538
956,-8.22030422554253,-11.1445474624634,0.950973153114319,-8.31331107916387,-12.5272455215454,1.0188524723053
957,-4.73062375323347,-11.0924491882324,0.853747189044952,-8.78043721785481,-12.5114231109619,0.593665599822998
958,-14.4648006634772,-11.1156015396118,0.817692875862122,-13.1158268175769,-12.489917755127,0.790480315685272
959,-14.2475300235298,-11.1559543609619,0.870569825172424,-12.8457165977532,-12.5160150527954,0.7157923579216
960,-10.1994046722532,-11.1294193267822,0.920647799968719,-8.09108459272205,-12.4487524032593,0.672784805297852
961,-11.9974175121163,-11.1353244781494,0.761979281902313,-14.998671583451,-12.4824028015137,0.73361074924469
962,-14.383286049793,-11.151801109314,0.828853070735931,-11.6742099148486,-12.4847173690796,0.755154967308044
963,-14.4975790427112,-11.1454553604126,2.20373249053955,-10.058156137836,-12.4675493240356,1.6615983247757
964,-17.4717739033336,-11.2110013961792,0.763755977153778,-14.4636397363173,-12.4981336593628,0.635016798973083
965,-15.6496517016899,-11.2340803146362,0.846384286880493,-6.62305338575769,-12.4376783370972,0.787343323230743
966,-10.0711462659304,-11.2112340927124,0.605912208557129,-14.7845077317338,-12.4462585449219,0.571692287921906
967,-18.2482432509856,-11.1895608901978,0.901690304279327,-15.9986225642697,-12.4545335769653,0.756800949573517
968,-7.38905457493081,-11.1851949691772,6.31710624694824,-5.58876345962524,-12.3988561630249,4.37334442138672
969,-15.3479028871993,-11.1875457763672,0.878929197788239,-12.9360281486951,-12.4050378799438,0.749209105968475
970,-17.0752460762102,-11.2213983535767,0.882709741592407,-14.1057614026718,-12.4691076278687,0.744760751724243
971,-9.86099400358937,-11.2583885192871,0.752074658870697,-8.51959308798264,-12.443244934082,0.744442999362946
972,-11.6541598360552,-11.2360925674438,0.816605091094971,-8.37800195710746,-12.4691257476807,0.55937135219574
973,-15.3200226676915,-11.2785749435425,0.908594906330109,-7.38586359548884,-12.4489288330078,0.768587529659271
974,-13.1375604723399,-11.2623825073242,0.91705846786499,-15.8336883078466,-12.4750089645386,0.790171325206757
975,-14.2812525120989,-11.281699180603,0.918031394481659,-14.5660185222265,-12.4695053100586,0.772948265075684
976,-14.9978004454693,-11.3249769210815,0.963173806667328,-11.9976879340558,-12.4061594009399,0.866609275341034
977,-8.99577327451549,-11.3049640655518,0.720815539360046,-16.4986225642697,-12.4261608123779,0.699754357337952
978,-19.1421439154013,-11.3525915145874,0.913138568401337,-15.6904514277676,-12.4407796859741,0.82972514629364
979,-19.8088595200651,-11.3546571731567,0.903625249862671,-12.9367732545348,-12.4370365142822,0.668109953403473
980,-16.9980218482275,-11.3685111999512,0.939198553562164,-16.9983521423302,-12.4659309387207,0.773287892341614
981,-12.4053634706794,-11.3567085266113,0.857176125049591,-8.34825784825073,-12.421594619751,0.698307991027832
982,-15.5946472923162,-11.4138250350952,0.901458144187927,-13.1716031821768,-12.4420719146729,0.784275412559509
983,-10.931390308658,-11.4081687927246,0.97103613615036,-13.1029389226127,-12.4650526046753,0.850827276706696
984,-15.2545280760807,-11.4239521026611,0.91463303565979,-13.6238935887824,-12.4406270980835,0.750129222869873
985,-14.4973086207717,-11.4206113815308,0.922909557819366,-10.6310752391121,-12.4515209197998,0.751642346382141
986,-8.99724512853944,-11.4158010482788,1.06775343418121,-16.4986225642697,-12.4326028823853,0.924957692623138
987,-18.8045001109743,-11.502121925354,0.956074059009552,-13.1539037318543,-12.3929100036621,0.814794659614563
988,-16.0171469544632,-11.5417442321777,0.921870648860931,-7.28308577719856,-12.3727445602417,0.771425306797028
989,-15.3386450639506,-11.5773687362671,0.921171367168427,-12.1243532630892,-12.3722124099731,0.677050411701202
990,-15.746796307299,-11.6147909164429,1.87810218334198,-12.852291084596,-12.388298034668,2.85769248008728
991,-12.4443379082425,-11.6023206710815,0.95494931936264,-6.15553244124077,-12.3386688232422,0.767271101474762
992,-11.0212070399765,-11.6423311233521,0.971782088279724,-19.1273845722133,-12.3278541564941,0.845558345317841
993,-8.88274540532012,-11.6171703338623,0.846035122871399,-9.2278434134665,-12.3306007385254,0.775483012199402
994,-9.63296048981158,-11.5961408615112,1.01865541934967,-8.85594652167571,-12.3191499710083,0.854515314102173
995,-7.49615258779957,-11.5465106964111,1.07136821746826,-11.9976879340558,-12.3588466644287,0.913975834846497
996,-17.2763871162401,-11.5795707702637,0.933276772499084,-19.4356994280892,-12.3647880554199,0.707224190235138
997,-18.1223927865442,-11.6250619888306,0.932075679302216,-17.281227386717,-12.3885936737061,0.803422152996063
998,-12.1414786063889,-11.5946455001831,0.962165653705597,-19.4993357917255,-12.419846534729,0.711230874061584
999,-14.9984011615116,-11.6346244812012,0.972702264785767,-13.4975790427112,-12.4208431243896,0.858949184417725
1000,-8.61444624754795,-11.6337652206421,1.0344352722168,-15.0399832075342,-12.408992767334,0.874854564666748
1001,-20.5134460833726,-11.7187194824219,0.965457916259766,-14.0912641760436,-12.4304990768433,0.742910206317902
1002,-15.0120371405737,-11.7384748458862,0.520624876022339,-12.5200511356983,-12.4198923110962,0.647956073284149
1003,-9.65483079119861,-11.7112951278687,0.937552452087402,-7.61608307984319,-12.3815650939941,0.728708982467651
1004,-7.3574065411417,-11.7439050674438,0.934064924716949,-16.4720363528565,-12.3724699020386,0.807668924331665
1005,-10.4971961093581,-11.7370634078979,1.07374954223633,-13.4973086207717,-12.3269548416138,0.941219806671143
1006,-10.4267127409148,-11.7399778366089,0.970784962177277,-7.96023248874441,-12.297625541687,0.810762584209442
1007,-13.1553779056976,-11.7480592727661,0.497147291898727,-14.9698232187673,-12.3188447952271,0.529555678367615
1008,-15.8104203170787,-11.7989730834961,1.01659250259399,-17.9735630681515,-12.3587532043457,0.852451026439667
1009,-8.71889510272617,-11.7669744491577,1.05993974208832,-14.5748130404602,-12.3654127120972,0.995986104011536
1010,-12.9754041288706,-11.8075065612793,0.982340157032013,-9.16743486546132,-12.4092359542847,0.782394289970398
1011,-11.8177820732112,-11.8479785919189,1.6196711063385,-14.0574331463377,-12.4281625747681,1.9809730052948
1012,-11.1673131947049,-11.8632144927979,0.997882485389709,-14.1857510857219,-12.4165649414062,0.824099898338318
1013,-8.28746381479817,-11.8284864425659,2.61868929862976,-12.3260903009197,-12.4287576675415,3.3786895275116
1014,-19.4993357917255,-11.8784980773926,0.995635211467743,-11.9976879340558,-12.388747215271,0.884542524814606
1015,-1.93093016780077,-11.8592004776001,0.955505728721619,-9.01852126738909,-12.3950252532959,0.730140447616577
1016,-9.84891580665991,-11.8461675643921,0.806957602500916,-14.3045459190336,-12.388201713562,0.675269067287445
1017,-14.2615590562484,-11.8765668869019,5.37099933624268,-10.1127858506463,-12.405797958374,4.15289115905762
1018,-6.16588618567968,-11.8042163848877,0.956068456172943,-10.2605018521599,-12.3933629989624,0.752033174037933
1019,-6.53724512853944,-11.7611474990845,0.927946269512177,-10.7031797587534,-12.3738956451416,0.757688045501709
1020,-13.9940721571826,-11.7534227371216,0.9754878282547,-7.98556176939284,-12.3843221664429,0.854243636131287
1021,-15.9933034153335,-11.7717189788818,0.93354743719101,-13.19411713141,-12.3995676040649,0.770883440971375
1022,-14.8520219976975,-11.7765855789185,0.911678791046143,-16.7572286470943,-12.4232988357544,0.753170371055603
1023,-7.00068434031568,-11.7338705062866,0.953884720802307,-16.0150800365689,-12.425009727478,0.863580822944641
1024,-11.228568699495,-11.7187395095825,1.47840917110443,-13.2766795718117,-12.4235372543335,0.773263931274414
1025,-6.05732264791928,-11.6892051696777,1.00047886371613,-13.3007267429069,-12.4194707870483,0.769067168235779
1026,-10.263594881093,-11.6847858428955,0.916893184185028,-15.7426050158935,-12.4648370742798,0.822124361991882
1027,-10.7320853401222,-11.7007808685303,0.951696038246155,-14.0954626405948,-12.5001316070557,0.698376536369324
1028,-14.4871907477644,-11.7769412994385,4.10951089859009,-16.029112766429,-12.5985736846924,3.10982418060303
1029,-12.7622297082519,-11.8289632797241,0.940147459506989,-13.720571684454,-12.5861015319824,0.687845766544342
1030,-11.2788546053792,-11.8243474960327,0.965764045715332,-13.3614062693293,-12.582498550415,0.752952396869659
1031,-5.99309987369803,-11.782452583313,1.03424394130707,-14.9984011615116,-12.5622673034668,0.957168102264404
1032,-11.9650242242587,-11.7922430038452,3.11278438568115,-10.3326881513081,-12.5611686706543,2.48408126831055
1033,-6.58567027616322,-11.7011518478394,0.986849546432495,-9.66629770012876,-12.5082769393921,0.831811010837555
1034,-9.95009740915136,-11.6874990463257,1.00211071968079,-5.91152432768744,-12.467700958252,0.861562371253967
1035,-17.235478025331,-11.7170972824097,1.4783171415329,-16.0668043824515,-12.5504789352417,1.1275223493576
1036,-7.49454773358701,-11.6794385910034,1.07820975780487,-5.99566076310192,-12.4929599761963,0.948361277580261
1037,-7.74463521995422,-11.6673831939697,1.04333698749542,-13.7479093368139,-12.515923500061,0.902647316455841
1038,-14.5038359441203,-11.7053079605103,0.973256528377533,-12.3081837702072,-12.5668840408325,0.816403150558472
1039,-16.5819834697473,-11.7729911804199,1.03207433223724,-17.034137884604,-12.6270666122437,0.886153638362885
1040,-18.0121575764953,-11.8370122909546,1.31735372543335,-16.9988929862092,-12.6270666122437,0.58210951089859
1041,-10.4488416039784,-11.8947763442993,1.00116014480591,-10.8005899349426,-12.6282052993774,0.752302765846252
1042,-15.8404385898806,-11.9276971817017,1.06820249557495,-16.4975300235298,-12.697826385498,0.855542063713074
1043,-16.4769141424665,-12.005578994751,1.10011124610901,-10.2715767505165,-12.7298126220703,0.881715655326843
1044,-11.6203212251935,-11.986985206604,5.93715906143188,-12.2341962566451,-12.7491912841797,4.61389970779419
1045,-15.7478004454693,-12.0043716430664,1.03498864173889,-19.0961755519716,-12.8031101226807,0.653720319271088
1046,-6.86267045461063,-12.0122509002686,0.939689695835114,-4.69819421879508,-12.761589050293,0.758675634860992
1047,-14.6002100840235,-12.0419902801514,1.09202861785889,-9.60529955019512,-12.7464790344238,0.897914230823517
1048,-4.14650354878491,-11.9919576644897,1.09569239616394,-11.9703112738711,-12.7162981033325,0.856390357017517
1049,-15.7094520573573,-12.0179061889648,1.05706715583801,-5.877759415269,-12.6817188262939,0.833635568618774
1050,-14.0466744288925,-12.0880699157715,0.992835402488708,-6.280354573082,-12.6433725357056,0.842774927616119
1051,-10.4965953933159,-12.1097316741943,1.08858358860016,-16.4988929862092,-12.6388034820557,0.944308876991272
1052,-12.1297275186321,-12.1276664733887,1.25537061691284,-12.4529956352383,-12.5918273925781,0.964124023914337
1053,-13.0584598717267,-12.1259956359863,0.940723717212677,-14.4975790427112,-12.5543222427368,0.817434072494507
1054,-13.5317501290663,-12.1317520141602,1.00715732574463,-10.5738940444677,-12.5376281738281,0.695741474628448
1055,-5.49421722803119,-12.0883960723877,1.0135053396225,-18.0646483695499,-12.54807472229,0.834845840930939
1056,-14.9984011615116,-12.0683908462524,0.995828151702881,-14.3408718273696,-12.5737018585205,0.658815264701843
1057,-8.04257240481014,-12.0502405166626,1.02105021476746,-13.6214725552047,-12.5644655227661,0.735153436660767
1058,-15.7668043824515,-12.0813083648682,0.970801830291748,-10.0243599452863,-12.5728092193604,0.73054575920105
1059,-13.2429588417644,-12.0793867111206,0.983623206615448,-14.41424274567,-12.5549993515015,0.817525744438171
1060,-5.85575032289335,-12.0774374008179,0.955018997192383,-2.13971263753187,-12.4974784851074,0.836786031723022
1061,-18.9988439670279,-12.1341209411621,0.893581509590149,-12.3076919455096,-12.5095510482788,0.772199988365173
1062,-14.996796307299,-12.1641054153442,0.896586775779724,-14.9984011615116,-12.5112352371216,0.786579489707947
1063,-2.15233957041486,-12.0984659194946,0.953855574131012,-10.8839205796009,-12.5138187408447,0.672703444957733
1064,-14.6486225642697,-12.1271591186523,0.960282564163208,-17.7480218482275,-12.5195560455322,0.750970423221588
1065,-15.7452994282287,-12.1557531356812,0.929106056690216,-13.914467112136,-12.5621433258057,0.686193943023682
1066,-5.64606523335782,-12.1389188766479,1.00403690338135,-10.9662738907167,-12.560736656189,0.845599114894867
1067,-17.4741960797039,-12.1879243850708,0.948164641857147,-11.5063957211947,-12.5772523880005,0.794789731502533
1068,-13.6742034983447,-12.1899356842041,1.01309669017792,-17.7483521423302,-12.5689163208008,0.768895983695984
1069,-10.2541345593382,-12.1983165740967,6.59606266021729,-14.8877010625632,-12.6182041168213,4.71840858459473
1070,-10.4965953933159,-12.2183198928833,0.952542722225189,-11.9974175121163,-12.6182022094727,0.860957384109497
1071,-12.3840343053623,-12.1875553131104,1.01931428909302,-8.8360741262343,-12.5488681793213,0.845277070999146
1072,-18.0108300445991,-12.2774562835693,0.84619015455246,-13.075225121771,-12.5781421661377,0.731912076473236
1073,-7.89197470659996,-12.210075378418,0.975006878376007,-9.59741751211627,-12.5321321487427,0.74490362405777
