EpisodeIndex,DQNEpisodeReward,DQNAverageReward,DQNEpisodeQ0,DDQNEpisodeReward,DDQNAverageReward,DDQNEpisodeQ0
1,-17.7321517706255,-17.7321510314941,0.1040910333395,-21.4943194916662,-21.4943199157715,0.0789455622434616
2,-17.867671241397,-17.7999114990234,0.81281453371048,-22.7471597458331,-22.1207389831543,0.363433688879013
3,-21.1319599411044,-18.9105930328369,0.0331156626343727,-16.1414261604,-20.1276340484619,0.00681771198287606
4,-24,-20.1829452514648,0.210224151611328,-15.3667874712813,-18.9374237060547,0.0411246418952942
5,-21.4943194916662,-20.4452209472656,0.148631125688553,-18.9914792374994,-18.9482364654541,0.0314805433154106
6,-18.8717913233278,-20.1829814910889,1.73251235485077,-19.1271447665096,-18.9780540466309,0.31918078660965
7,-10.4537291612715,-18.7930889129639,0.0904824212193489,-15.3561523627965,-18.4606380462646,-0.000960886420216411
8,-16.4566392063417,-18.5010318756104,0.0872999653220177,-17.7321517706255,-18.3695774078369,-0.00448652915656567
9,-15.2264712622917,-18.1371917724609,0.0238905269652605,-17.7349920247924,-18.2990684509277,0.00342806684784591
10,-18.3870180357016,-18.1621742248535,0.397213935852051,-18.7408557961029,-18.3432464599609,0.00663391035050154
11,-17.0189734760518,-18.0582466125488,0.243897348642349,-20.9846295691856,-18.5833721160889,-0.00963408220559359
12,-19.2176509843299,-18.1548633575439,0.0616493970155716,-19.9336757692913,-18.6958980560303,0.0137257250025868
13,-24,-18.6044902801514,0.0570108965039253,-20.7793662206382,-18.8561668395996,0.0174384620040655
14,-21.4943194916662,-18.8109073638916,0.112168878316879,-16.4829584749987,-18.6866493225098,0.0348916798830032
15,-18.3140358087293,-18.7777824401855,0.152815535664558,-16.4785048120854,-18.5394401550293,-0.0071270908229053
16,-19.5367453224375,-18.8252182006836,0.0320888012647629,-16.2973691619298,-18.3993110656738,0.015449465252459
17,-18.8729997430741,-18.8280277252197,0.0913199186325073,-18.1620255176153,-18.3853549957275,-0.0538066513836384
18,-19.9874070492699,-18.8924369812012,-0.00940031372010708,-19.3405575785132,-18.4384212493896,-0.0279696322977543
19,-17.7321517706255,-18.831371307373,-0.0120355989784002,-19.0625782316889,-18.4712696075439,-0.0257405247539282
20,-18.2925311989014,-18.8044300079346,0.487209767103195,-16.1027189540407,-18.3528423309326,-0.182169854640961
21,-22.7471597458331,-18.9921779632568,0.102448917925358,-21.2670467643935,-18.4916133880615,-0.0428149290382862
22,-19.5464977758446,-19.0173740386963,0.089705690741539,-14.9344024219962,-18.3299236297607,0.0410455390810966
23,-18.8393053244559,-19.0096321105957,0.0245875511318445,-17.7321517706255,-18.3039321899414,0.0193389840424061
24,-18.4547722445726,-18.9865131378174,1.08883213996887,-17.9281994228929,-18.2882766723633,-0.140790328383446
25,-15.871519404868,-18.8619136810303,0.0579737573862076,-16.2814976538968,-18.2080059051514,0.0432044938206673
26,-17.7321517706255,-18.8184623718262,0.102888680994511,-16.4857987291656,-18.1417655944824,0.0548725612461567
27,-17.7386389833325,-18.7784671783447,0.174485266208649,-16.4709817704594,-18.0798854827881,0.0964421927928925
28,-15.4829584749987,-18.6607704162598,0.39468777179718,-16.3272084207956,-18.0172901153564,0.337923258543015
29,-16.4673348119192,-18.5851364135742,0.291098743677139,-18.9849920247924,-18.0506591796875,0.221052706241608
30,-22.7471597458331,-18.7238693237305,0.300237894058228,-16.048868977808,-17.9839344024658,0.257555961608887
31,-14.8198447562676,-18.5979328155518,0.313063085079193,-19.9613587555717,-18.047721862793,0.227815419435501
32,-16.0727833265476,-18.519021987915,0.259068310260773,-15.2068669784238,-17.9589443206787,0.211268484592438
33,-18.1514961261896,-18.507884979248,0.154561847448349,-19.8171935232137,-18.0152549743652,0.0903400331735611
34,-15.7209817704594,-18.4259185791016,0.165243521332741,-20.0056894218164,-18.0737972259521,0.0569969862699509
35,-14.9195781933086,-18.3257350921631,0.196821123361588,-20.2109628055745,-18.134859085083,0.0732164084911346
36,-20.2414792374994,-18.3789520263672,0.125337526202202,-13.9764712622917,-18.0193481445312,0.0190181136131287
37,-17.0942892952034,-18.3442306518555,0.194137796759605,-18.9914792374994,-18.0456237792969,0.0769502595067024
38,-12.0338468169545,-18.1781673431396,0.163239061832428,-20.4878322789592,-18.1098918914795,0.108185313642025
39,-18.0386389833325,-18.1745910644531,0.174831971526146,-12.6116543035855,-17.9689121246338,0.0944846421480179
40,-17.1387113505248,-18.1486930847168,0.144222259521484,-16.9738220246262,-17.944034576416,0.090620145201683
41,-18.8664792374994,-18.1662006378174,0.0906224027276039,-12.0637340495847,-17.8006114959717,0.0498798452317715
42,-17.871495092277,-18.1591835021973,0.0644947737455368,-18.5294705523997,-17.8179664611816,0.0689603388309479
43,-17.1866972251709,-18.1365661621094,0.105959631502628,-20.2414792374994,-17.8743267059326,-0.256990760564804
44,-16.9886389833325,-18.1104774475098,0.056746706366539,-20.5568194916662,-17.9352912902832,0.00140174408443272
45,-15.6385859062331,-18.0555477142334,0.0959009528160095,-11.8217452148618,-17.7994365692139,0.0189447402954102
46,-15.3902618457853,-17.9976062774658,0.113796271383762,-9.9504183485293,-17.6288051605225,-0.0797659233212471
47,-15.2329584749987,-17.9387836456299,0.18114010989666,-16.4673348119192,-17.6040916442871,0.00464501138776541
48,-15.8131971529975,-17.8945007324219,0.204689398407936,-17.1439663837667,-17.5945072174072,-0.057525273412466
49,-19.7067671902019,-17.9314861297607,0.200208902359009,-13.9518933862413,-17.5201683044434,0.0400737188756466
50,-16.4829584749987,-17.902515411377,0.228479728102684,-17.7357987291656,-17.5244808197021,0.0881113111972809
51,-17.1920965220067,-17.8885860443115,0.257774859666824,-16.123035748526,-17.4970016479492,0.18708074092865
52,-11.7199840495847,-17.7699584960938,0.258800804615021,-17.1638562831224,-17.490592956543,0.166770458221436
53,-19.4878322789592,-17.8023719787598,0.257542043924332,-16.3173473013517,-17.4684581756592,0.10210195928812
54,-11.2334325242619,-17.6807231903076,0.179219335317612,-16.5503272950208,-17.4514541625977,0.0709236934781075
55,-18.2756212318532,-17.6915397644043,0.157148659229279,-19.0256212318532,-17.4800758361816,0.0382267758250237
56,-16.8856769562992,-17.6771507263184,1.59376454353333,-10.6412383777299,-17.3579540252686,-0.519459128379822
57,-15.497109418395,-17.6389026641846,0.176489144563675,-9.16930796878708,-17.2142925262451,0.0205798652023077
58,-18.2059061522162,-17.6486797332764,0.124247267842293,-16.1725754872301,-17.1963329315186,0.0145315770059824
59,-17.105961294435,-17.6394805908203,0.0996722355484962,-18.5867173327375,-17.219898223877,-0.279299974441528
60,-16.4709817704594,-17.6200046539307,0.174213796854019,-17.7357987291656,-17.2284965515137,0.00487758219242096
61,-24,-17.7245960235596,0.152523338794708,-11.4813325297836,-17.1342811584473,0.12037967145443
62,-14.7841395773609,-17.6771697998047,0.000306734000332654,-16.9857987291656,-17.1318855285645,0.202452912926674
63,-17.3690944457847,-17.6722793579102,0.0166678186506033,-18.7259001298293,-17.1571884155273,0.176501303911209
64,-15.7357987291656,-17.6420211791992,0.0434134602546692,-21.4943194916662,-17.2249546051025,0.198750212788582
65,-12.3056608962655,-17.5599231719971,0.045616190880537,-15.3686816120485,-17.1963977813721,0.178471028804779
66,-16.7918225525185,-17.5482845306396,0.0618036575615406,-17.7386389833325,-17.2046146392822,0.16228012740612
67,-18.9914792374994,-17.56982421875,-0.220764979720116,-14.9785048120854,-17.1713886260986,-0.284870237112045
68,-21.4971597458331,-17.6275787353516,0.139393255114555,-15.2803973846606,-17.1435794830322,0.169391691684723
69,-17.8199956203573,-17.6303691864014,0.0618083737790585,-13.1507734745699,-17.0857124328613,0.0681298226118088
70,-17.8436389833325,-17.633415222168,0.0849270895123482,-18.9886389833325,-17.1128978729248,0.0810263156890869
71,-20.7443194916662,-17.6772327423096,0.103943161666393,-12.3754280001355,-17.0461730957031,0.0612361468374729
72,-14.087201855899,-17.6273708343506,0.0831219032406807,-19.1935340320199,-17.0759963989258,-0.0214149747043848
73,-15.2264712622917,-17.594482421875,0.077870100736618,-12.6640785638939,-17.0155601501465,-0.0276735350489616
74,-18.4650086492641,-17.6062431335449,0.154611930251122,-14.1322526929292,-16.9765968322754,0.106211632490158
75,-15.1439382640493,-17.573413848877,0.238526031374931,-14.4811224250824,-16.943323135376,0.187106385827065
76,-12.7199840495847,-17.5095539093018,0.143825218081474,-11.4606565827109,-16.8711833953857,0.146726548671722
77,-14.735125469947,-17.4735221862793,-0.18974369764328,-17.8635722607552,-16.8840713500977,-0.350094676017761
78,-15.8060310931782,-17.4521446228027,0.8961021900177,-13.3706511564716,-16.8390274047852,0.114001244306564
79,-12.8476978284427,-17.3938598632812,0.244630366563797,-14.4402156080994,-16.8086624145508,0.203718319535255
80,-13.8830828750141,-17.3499755859375,0.0315803699195385,-17.9666791674834,-16.8231391906738,-0.0616342015564442
81,-11.464303541251,-17.2773113250732,0.191762611269951,-11.4606565827109,-16.7569351196289,0.267757415771484
82,-13.9644945577524,-17.2369117736816,0.236458465456963,-16.4821517706255,-16.7535839080811,0.314496964216232
83,-12.5997983210262,-17.1810436248779,0.937302827835083,-16.3702957880662,-16.748966217041,-0.0784855335950851
84,-18.0409410332909,-17.1912803649902,0.292849004268646,-18.9878322789592,-16.7756195068359,0.261083602905273
85,-16.4821517706255,-17.1829376220703,0.276297718286514,-13.9764712622917,-16.7426872253418,0.202651619911194
86,-17.5108874028094,-17.1867504119873,0.297636479139328,-15.5166678382977,-16.7284317016602,0.144681811332703
87,-18.3592953294534,-17.2002277374268,0.0540472194552422,-12.2084897967112,-16.6764793395996,-0.108914710581303
88,-13.6242094756423,-17.1595916748047,0.243759885430336,-18.5625430452005,-16.6979122161865,0.185393095016479
89,-14.5959781831253,-17.130786895752,0.188024595379829,-15.8959781831253,-16.6888980865479,0.167840331792831
90,-13.4569188001766,-17.0899677276611,0.142748668789864,-20.2414792374994,-16.7283744812012,0.16717816889286
91,-13.2401353162437,-17.0476608276367,0.155698835849762,-14.4476659468384,-16.7033100128174,0.153615385293961
92,-18.4919010742467,-17.0633602142334,0.113933891057968,-17.6415677838681,-16.713508605957,0.100090496242046
93,-13.3778048186342,-17.0237293243408,0.0894804522395134,-22.095434437888,-16.7713775634766,-0.0120279770344496
94,-17.1394688437962,-17.024959564209,0.202877819538116,-13.4927377286502,-16.736499786377,0.205144882202148
95,-11.3651217881367,-16.9653835296631,0.148213222622871,-17.6442183824741,-16.7460556030273,0.113803498446941
96,-11.441631231134,-16.9078426361084,0.162196591496468,-13.9663370910446,-16.7171001434326,0.146321430802345
97,-18.3425869615012,-16.9226360321045,5.06829166412354,-18.7618457343873,-16.7381801605225,-0.0879231095314026
98,-17.3242232544029,-16.9267330169678,0.276191532611847,-17.6699566486743,-16.747688293457,0.200307533144951
99,-17.7386389833325,-16.9349346160889,0.203365340828896,-11.4606565827109,-16.6942844390869,0.173570796847343
100,-12.6048118813914,-16.8916339874268,0.24567337334156,-20.8064312929085,-16.7354049682617,0.139450550079346
101,-15.0258980665243,-16.873161315918,0.257501423358917,-18.3621850072485,-16.7515106201172,0.129012048244476
102,-17.9621683950972,-16.8838367462158,0.24479877948761,-14.9427067569762,-16.7337799072266,0.0901385843753815
103,-15.7293115164586,-16.8726291656494,1.80448615550995,-11.9616543035855,-16.6874485015869,0.00462202401831746
104,-17.3846785872929,-16.8775520324707,0.254938691854477,-14.0754811632818,-16.66233253479,0.095278188586235
105,-15.2293115164586,-16.8618545532227,0.230647310614586,-10.2059737952517,-16.6008415222168,0.113277480006218
106,-10.0996790530715,-16.798059463501,0.254412859678268,-16.6070600359641,-16.6009006500244,0.20412215590477
107,-11.6055451645646,-16.749532699585,0.247897386550903,-15.3732023774378,-16.589427947998,0.288374036550522
108,-17.5755717349373,-16.7571811676025,0.17576439678669,-18.7386152131982,-16.6093273162842,0.246480599045753
109,-16.0665736488276,-16.7508430480957,0.209807425737381,-14.5875039295442,-16.5907783508301,0.342022925615311
110,-15.2855900539461,-16.7375240325928,0.184909388422966,-12.5920520607564,-16.5544261932373,0.21522943675518
111,-15.2144945577524,-16.7238025665283,0.138020351529121,-13.9681415162925,-16.5311260223389,0.187784120440483
112,-15.1853394273797,-16.7100658416748,0.429633229970932,-9.96349683687773,-16.4724864959717,-0.253753304481506
113,-13.7808032397557,-16.6841430664062,0.201769530773163,-17.0429709607965,-16.4775352478027,0.302646994590759
114,-14.7133098883715,-16.6668548583984,0.231308206915855,-10.3995117884414,-16.4242191314697,0.306871056556702
115,-9.96210390315529,-16.6085529327393,0.253606349229813,-15.887707326181,-16.4195537567139,0.246872827410698
116,-16.2461163697356,-16.6054286956787,0.32341143488884,-7.03787575513385,-16.3386764526367,0.151233702898026
117,-18.2861073377629,-16.6197929382324,0.350106120109558,-8.81941544430654,-16.2744102478027,0.16778527200222
118,-15.6501024452215,-16.6115760803223,0.322851419448853,-14.6412424986674,-16.2605686187744,0.200764313340187
119,-12.2544717690381,-16.5749607086182,0.324988573789597,-11.2330429880379,-16.2183208465576,0.120936281979084
120,-14.4644945577524,-16.5573749542236,0.311666071414948,-17.7094794605085,-16.2307472229004,0.117541827261448
121,-12.8478243037516,-16.5267181396484,0.278911858797073,-12.1233931404938,-16.1968021392822,0.0078274067491293
122,-14.0020445662099,-16.5060234069824,0.252874433994293,-11.4093035227447,-16.1575603485107,-0.0260917283594608
123,-9.80388304887382,-16.4515342712402,0.252891004085541,-10.1196859439114,-16.1084728240967,0.0892294347286224
124,-2.27672166340055,-16.3372211456299,0.33110123872757,-11.414614922068,-16.0706176757812,0.0826462283730507
125,-10.185144018427,-16.2880039215088,0.12706147134304,-15.2181415162925,-16.0637989044189,0.109834939241409
126,-10.9951990259444,-16.2459983825684,0.341953784227371,-17.7349920247924,-16.0770606994629,0.0172745306044817
127,-17.058928407605,-16.2523994445801,0.398194044828415,-12.4510160057131,-16.048511505127,-0.0761624947190285
128,-6.42818241113148,-16.1756477355957,0.371621400117874,-7.66748680555389,-15.9830341339111,-0.0485753826797009
129,-8.14948872643616,-16.1134281158447,0.33944708108902,-9.94857211906984,-15.9362545013428,0.157945588231087
130,-4.80239158498141,-16.0264205932617,0.385661661624908,-16.9137463274189,-15.9437742233276,0.140845537185669
131,-18.9914792374994,-16.0490550994873,0.385711580514908,-22.75,-15.9957304000854,0.140990868210793
132,-15.5259959376697,-16.0450916290283,0.321115642786026,-19.5219140201081,-16.0224437713623,0.0836980417370796
133,-15.5858103072109,-16.0416393280029,0.303472220897675,-12.9181547812921,-15.9991044998169,0.0547245368361473
134,-8.56849468047812,-15.9858694076538,0.216821148991585,-11.0732885519952,-15.9623441696167,0.0693060010671616
135,-14.525455882699,-15.9750509262085,4.97652626037598,-11.2482877336291,-15.9274253845215,-0.293546795845032
136,-13.7037989521748,-15.9583511352539,0.272216528654099,-15.1027088860541,-15.9213619232178,-0.00158946844749153
137,-15.7599295484033,-15.9569025039673,0.22707536816597,-8.32176769382196,-15.8658905029297,0.00869869999587536
138,-9.32050865489342,-15.9088134765625,0.202878415584564,-17.7940829338833,-15.879861831665,-0.322989255189896
139,-10.3320024552157,-15.8686923980713,0.518747329711914,-13.2906052844084,-15.8612337112427,-0.548933267593384
140,-9.48030191180837,-15.8230609893799,0.286714762449265,-13.3671847789464,-15.8434190750122,0.067099317908287
141,-11.4841595022241,-15.7922878265381,1.41484069824219,-9.15549041860772,-15.7959871292114,-0.296824306249619
142,-6.99250332578632,-15.7303171157837,0.326792895793915,-4.26916344467518,-15.7148132324219,0.211005061864853
143,-13.4012591078888,-15.7140312194824,0.306867957115173,-11.0291945759005,-15.6820468902588,0.257861346006393
144,-13.0960127095487,-15.6958503723145,0.366729021072388,-10.2497266059077,-15.6443223953247,0.272761940956116
145,-6.43731886150397,-15.6319971084595,0.268669039011002,-11.4559737952517,-15.6154365539551,0.294741272926331
146,-11.26138010863,-15.6020622253418,2.4921338558197,-7.4056538779656,-15.5592060089111,-0.207135230302811
147,-13.568023265271,-15.5882263183594,0.234962165355682,-13.7558830269976,-15.5469379425049,0.287323832511902
148,-11.8305181134735,-15.5628347396851,0.191993698477745,-17.1393482031907,-15.5576963424683,0.221766322851181
149,-14.8870592333673,-15.5582990646362,0.374081552028656,-4.62701002829608,-15.484335899353,0.216752976179123
150,-16.4709817704594,-15.5643844604492,0.349510997533798,-12.7116543035855,-15.4658527374268,0.189353749155998
151,-17.7321517706255,-15.5643844604492,0.337890625,-11.4486798781715,-15.3988800048828,0.322893738746643
152,-10.8107631971907,-15.5173387527466,0.415394008159637,-12.5017521611681,-15.3305797576904,0.376517832279205
153,-13.5949840495847,-15.4670915603638,0.36307168006897,-11.76238547799,-15.3013849258423,0.367336839437485
154,-10.1347511650229,-15.3746566772461,0.430572003126144,-13.9764712622917,-15.2921161651611,0.390750914812088
155,-6.76163006213672,-15.2764387130737,0.337478935718536,-9.51441535369329,-15.2289352416992,0.327421009540558
156,-10.1994865825447,-15.2186231613159,0.426956832408905,-8.92032705972076,-15.1608905792236,0.381424844264984
157,-14.8764712622917,-15.2481088638306,0.265325725078583,-11.5170428731141,-15.1352958679199,0.340750932693481
158,-8.33230949548566,-15.1939468383789,0.391797214746475,-15.2627015949555,-15.1188325881958,0.336479336023331
159,-12.6647065564094,-15.1768684387207,0.447947561740875,-13.1963537155163,-15.0885763168335,0.234716221690178
160,-14.405447880095,-15.1503257751465,0.457276374101639,-15.6505714564383,-15.0679740905762,0.0493875220417976
161,-10.3910366811637,-15.1061391830444,0.474497735500336,-9.14202337567637,-14.9890232086182,0.0154751660302281
162,-12.1163348707858,-15.0587968826294,0.227746054530144,-14.6248061888198,-14.953631401062,0.00287499907426536
163,-15.7523955970683,-15.0038137435913,7.56753301620483,-10.6925310114024,-14.8863849639893,0.261208742856979
164,-19.2532459930463,-14.9888725280762,0.305740118026733,-13.1997495416807,-14.8644971847534,-0.0887806415557861
165,-12.3160843281363,-14.9488849639893,0.281296610832214,-12.4837186229119,-14.8378648757935,0.115982219576836
166,-7.80817811314122,-14.8706951141357,0.154801309108734,-13.2293848000394,-14.8174104690552,0.0796622708439827
167,-14.2836046333219,-14.8400993347168,0.282219499349594,-11.0614421742504,-14.7700729370117,0.0355183780193329
168,-12.3618933512804,-14.7892627716064,0.586517691612244,-6.42044482072663,-14.6839389801025,-0.179910287261009
169,-11.4551670908785,-14.7474174499512,0.260730981826782,-8.90555780139327,-14.6162252426147,0.0540751107037067
170,-14.4387387112109,-14.7217254638672,0.409519076347351,-7.4147548013896,-14.5583076477051,0.205874741077423
171,-16.2907492123198,-14.6786813735962,0.325326710939407,-12.5265100616283,-14.500036239624,0.114707097411156
172,-12.8934724854037,-14.6343259811401,0.380686968564987,-9.7023268367116,-14.4651565551758,0.0370846875011921
173,-5.92865680572001,-14.5482549667358,0.430355936288834,-6.52164632837785,-14.390419960022,0.156545951962471
174,-8.9614632870841,-14.4849672317505,0.491038918495178,-8.93046123096789,-14.3304347991943,0.222128793597221
175,-15.682451090989,-14.4837074279785,0.553634583950043,-8.8333331098032,-14.280779838562,-0.39784774184227
176,-7.60412364767324,-14.4161882400513,0.534592151641846,-8.24056612489613,-14.2258110046387,0.253788620233536
177,-15.8382224075477,-14.4035186767578,0.395581692457199,-8.59320038910107,-14.1732940673828,0.222468659281731
178,-10.6081982741443,-14.3710203170776,0.393492519855499,-12.6628617948361,-14.1488637924194,0.2961066365242
179,-11.4383384799645,-14.3374938964844,0.331772267818451,-12.4614581949978,-14.105372428894,0.247788742184639
180,-13.7399261198048,-14.2774448394775,0.3139388859272,-10.1336196215046,-14.065938949585,0.209242448210716
181,-7.69768215729685,-14.2299642562866,0.414109736680984,-11.4551670908785,-14.0092306137085,0.252648562192917
182,-11.0865342339313,-14.1967220306396,1.8100893497467,-4.52314381465885,-13.938006401062,-0.279394805431366
183,-10.5148598348155,-14.1458120346069,0.330702871084213,-7.19970712522313,-13.8538904190063,0.217006713151932
184,-9.34968103716588,-14.1033363342285,0.399218142032623,-10.9407695641505,-13.79345703125,0.202497273683548
185,-12.0714433293308,-14.0843486785889,0.402180731296539,-13.2423805605687,-13.7469987869263,0.169883042573929
186,-11.5771737326814,-14.0265865325928,0.345961362123489,-11.4970839208908,-13.7304706573486,0.113939546048641
187,-8.93230376426014,-13.9721727371216,0.381901293992996,-7.69015911567085,-13.6551284790039,0.184882879257202
188,-7.91164811982428,-13.9446926116943,0.329975843429565,-13.3107400878872,-13.6072807312012,0.135934010148048
189,-7.64907058868627,-13.8754281997681,0.59179276227951,-2.42546279349594,-13.5393733978271,0.356181144714355
190,-15.3538357811965,-13.8635282516479,0.502860128879547,-6.37321285516923,-13.4687032699585,-0.0236436165869236
191,-8.17872501333463,-13.7922773361206,0.475868344306946,-11.0236288642334,-13.4617671966553,0.342654764652252
192,-9.02815006131729,-13.7333202362061,0.524552524089813,-9.86938741488514,-13.404034614563,0.325820088386536
193,-12.720790753958,-13.7035484313965,0.459079205989838,-11.470790753958,-13.3455629348755,0.282975643873215
194,-14.2961739850177,-13.6855993270874,0.440859973430634,-15.0112664036767,-13.3085918426514,0.277363955974579
195,-16.9886389833325,-13.6945991516113,0.629646480083466,-8.16132595417043,-13.2841892242432,-0.388495057821274
196,-15.7264165530681,-13.6968412399292,0.367571890354156,-14.163041695056,-13.312273979187,0.121837481856346
197,-7.6567911999763,-13.6463317871094,0.532112061977386,-10.2059737952517,-13.2705316543579,0.273288995027542
198,-15.9695731542733,-13.6473751068115,0.473684251308441,-11.124708205385,-13.2304039001465,0.141978979110718
199,-10.9898548012383,-13.5892629623413,0.562801837921143,-15.6366715471207,-13.2416343688965,0.134368479251862
200,-16.1048511571286,-13.5867414474487,0.422880291938782,-11.3545785801619,-13.1990938186646,0.0879012942314148
201,-16.8024338852575,-13.5841426849365,0.378415733575821,-10.8176584681894,-13.1637239456177,0.082989864051342
202,-6.62022070200808,-13.550145149231,0.392605125904083,-9.54048083750525,-13.1129016876221,0.0691997781395912
203,-9.62868201161668,-13.4844169616699,0.440694898366928,-6.82185141626328,-13.0495986938477,0.184542298316956
204,-6.71889297523879,-13.4543199539185,0.398089021444321,-8.54729799616497,-12.9962463378906,0.202455461025238
205,-16.9857987291656,-13.4457206726074,0.377451419830322,-10.5553878448906,-12.9397773742676,0.0859128311276436
206,-15.2228243037516,-13.4346351623535,0.499386757612228,-12.720790753958,-12.9536409378052,0.347787648439407
207,-10.0762839289367,-13.3984975814819,0.469949960708618,-9.23085934587175,-12.9540510177612,0.267344921827316
208,-15.3946396271706,-13.3797559738159,0.394156664609909,-10.5199402323355,-12.9163675308228,0.232573553919792
209,-11.4333014851348,-13.3419380187988,0.483958393335342,-6.42581655155314,-12.8352947235107,0.35235184431076
210,-12.2031773268957,-13.3134851455688,0.359067916870117,-7.68552011402253,-12.768292427063,0.200102955102921
211,-6.06313861447883,-13.1939058303833,0.383482038974762,-11.4192014733968,-12.7678775787354,0.132612064480782
212,-13.4546906361837,-13.1850442886353,0.52904886007309,-13.186252815655,-12.7425470352173,0.345203876495361
213,-14.0291078189023,-13.1627769470215,0.459952741861343,-1.71015228354688,-12.6291093826294,0.267733871936798
214,-7.29641433664828,-13.1065139770508,0.441845744848251,-13.8680492553146,-12.5782670974731,0.133268788456917
215,-11.2254373611488,-13.0993127822876,0.416559219360352,-5.88316393367059,-12.5150308609009,0.0972391664981842
216,-15.2293115164586,-13.0888967514038,0.374023199081421,-6.41232962350622,-12.4395227432251,0.265857040882111
217,-12.0870863007275,-13.0428657531738,1.75156128406525,-13.7997696916111,-12.4316635131836,-0.127413541078568
218,-8.46786280577104,-12.9560041427612,0.490040987730026,-11.2451375348519,-12.4047613143921,0.295049041509628
219,-11.840392996787,-12.9161405563354,4.01173973083496,-7.84422342464999,-12.369384765625,0.273374229669571
220,-8.92397401826089,-12.8566761016846,0.486451894044876,-10.185144018427,-12.310694694519,0.387187540531158
221,-8.9383165823786,-12.7779684066772,0.547744929790497,-6.44015911567085,-12.2711267471313,0.34149095416069
222,-4.37902526709235,-12.7132482528687,1.98800504207611,-8.2947407229057,-12.198468208313,0.873957931995392
223,-10.1814970598869,-12.679615020752,0.729344487190247,-8.90475109702002,-12.1734066009521,0.528787314891815
224,-6.21748297947131,-12.5979642868042,0.502040982246399,-3.872688287388,-12.1050100326538,0.251708626747131
225,-8.21816731388764,-12.5517930984497,0.519201815128326,-8.56281632854398,-12.0655536651611,0.186678498983383
226,-3.35244266223181,-12.4893426895142,0.564052641391754,-5.1799332097623,-12.0236825942993,0.173231065273285
227,-12.8220214394728,-12.4765882492065,0.515619456768036,-12.7694820149799,-11.9897212982178,0.262110322713852
228,-9.45129746384417,-12.4342231750488,2.53557229042053,-5.96756826125495,-11.9403676986694,0.876392245292664
229,-16.9886389833325,-12.4618301391602,0.464953899383545,-11.505313453363,-11.920802116394,0.19294610619545
230,-7.95149705988689,-12.4222869873047,0.479877263307571,-11.6741240872913,-11.878851890564,0.218646854162216
231,-14.90939809156,-12.4452543258667,0.413990586996078,-10.1250822027314,-11.8699474334717,0.0731320828199387
232,-9.51055696907055,-12.4155597686768,1.30427694320679,-4.72157231425677,-11.791543006897,0.441719383001328
233,-10.9041428400047,-12.4042558670044,0.447701156139374,-1.37072934828079,-11.6915464401245,0.15276138484478
234,-16.2262250967055,-12.3921585083008,0.474283158779144,-4.72204509745143,-11.5964412689209,0.189520508050919
235,-10.1477900416982,-12.3499298095703,0.591189920902252,-8.59975778810331,-11.5605964660645,0.470841526985168
236,-11.430776666241,-12.3093948364258,0.468961745500565,-9.06527463653935,-11.5175876617432,0.232045635581017
237,-5.71091271776113,-12.2250728607178,0.466735571622849,-21.4943194916662,-11.5794925689697,0.237363070249557
238,-13.9401043138499,-12.2271785736084,0.385700970888138,-6.34653029311566,-11.4980525970459,0.218685790896416
239,-19.647576798475,-12.2608556747437,0.397625207901001,-7.86899877766668,-11.4445390701294,0.306965053081512
240,-6.23856315839017,-12.2127332687378,0.34251993894577,-12.3899691649407,-11.3921957015991,0.225228309631348
241,-3.34472276259931,-12.146764755249,0.370221138000488,-10.0127944666674,-11.3626298904419,0.211617231369019
242,-5.93673828470493,-12.063063621521,0.393871515989304,-15.340637438843,-11.3472909927368,-0.0255296193063259
243,-8.73282621963489,-12.0320959091187,0.426149994134903,-11.0246561299099,-11.2734851837158,0.0743216648697853
244,-10.0299637132802,-11.9847002029419,0.363775312900543,-6.96028061992228,-11.2299356460571,0.0695439949631691
245,-12.286514930414,-11.9908428192139,0.365961194038391,-12.2720698210776,-11.1941223144531,0.110004350543022
246,-12.2652444122936,-11.9963350296021,0.252686113119125,-15.6995531990308,-11.2056770324707,0.0512726120650768
247,-12.6404935576496,-11.9583206176758,0.362976759672165,-5.18037620622061,-11.1151332855225,0.124731868505478
248,-9.1506578683339,-11.903829574585,-0.121831096708775,-14.097173774357,-11.0913152694702,-0.354684680700302
249,-13.2191773452115,-11.8736991882324,0.415771663188934,-6.64549848801875,-11.0592136383057,0.225951686501503
250,-11.0739686884982,-11.8634939193726,0.293661385774612,-11.5661784551081,-10.9976119995117,0.125381305813789
251,-3.87639827856931,-11.7891645431519,0.372113049030304,-3.92895765984881,-10.9013900756836,0.274205058813095
252,-3.42003087802184,-11.6922159194946,0.545592069625854,-10.5896270168944,-10.8723697662354,0.135697305202484
253,-11.441631231134,-11.6636323928833,0.739833533763885,-4.99780201298969,-10.8259439468384,0.309600919485092
254,-3.82865466283068,-11.5732583999634,0.782392859458923,-5.14982959268076,-10.7664403915405,0.522352516651154
255,-8.92397401826089,-11.5312223434448,0.796138823032379,-2.46641137070807,-10.71484375,0.575895965099335
256,-10.448118443841,-11.5335464477539,0.578590512275696,-11.4353385141118,-10.6803646087646,0.382436037063599
257,-15.1355621713826,-11.5570802688599,0.469022661447525,-10.3535074317815,-10.646900177002,0.222734987735748
258,-7.89879610884312,-11.4925680160522,0.301598817110062,-8.46674299540865,-10.5784215927124,-0.116414204239845
259,-7.66043815851642,-11.4365262985229,0.688377439975739,-2.47365758740956,-10.4976625442505,0.418643623590469
260,-11.8055627979248,-11.4133272171021,0.523875594139099,-8.57826277879701,-10.4709033966064,0.365047186613083
261,-9.94082452676077,-11.3781690597534,0.510123252868652,-3.1489616319107,-10.3987760543823,0.337499409914017
262,-9.62704075395798,-11.3411130905151,0.59877610206604,-5.36615680572001,-10.3681268692017,0.490520000457764
263,-12.5669174614802,-11.3330211639404,0.454263925552368,-7.03997700292857,-10.3014392852783,0.331588119268417
264,-13.296763552108,-11.3235778808594,0.415551215410233,-14.1481116600735,-10.3264303207397,0.248301580548286
265,-8.41553029991507,-11.3132667541504,0.445403754711151,-15.079960867108,-10.3210458755493,0.224918574094772
266,-7.57542923864373,-11.2554626464844,0.43455708026886,-6.17876411202745,-10.315318107605,0.211623445153236
267,-10.6541830392177,-11.2045822143555,0.438609808683395,-7.80471077359602,-10.3085527420044,0.101156376302242
268,-14.8666128384205,-11.1993589401245,0.437267571687698,-15.929961122765,-10.3171443939209,0.133715182542801
269,-0.302165743451338,-11.1196765899658,0.388367593288422,-13.2219596267917,-10.3304042816162,0.0472396537661552
270,-9.68069565216544,-11.0877847671509,0.427858859300613,-13.4875988587309,-10.3022594451904,0.0272457655519247
271,-9.45881404941861,-11.0651912689209,0.331835031509399,-6.69144586159364,-10.2660465240479,-0.134879767894745
272,-2.83096004412978,-10.9907169342041,0.163608148694038,-10.4771702146551,-10.2598323822021,-0.161905229091644
273,-10.9132914871132,-10.9981136322021,0.436821639537811,-16.248033983419,-10.300687789917,0.176424950361252
274,-5.31017010024319,-11.0183362960815,0.297567397356033,-8.26665432209172,-10.2797012329102,0.0733746364712715
275,-11.524436923874,-11.0272645950317,0.335559695959091,-12.9745109430441,-10.2647438049316,0.120887406170368
276,-6.1602405888524,-10.9950313568115,1.56421184539795,-3.68996300708321,-10.1711101531982,1.43795883655548
277,-15.2293115164586,-10.982834815979,0.451583713293076,-8.67048105768285,-10.1459064483643,0.259752035140991
278,-7.81284339156823,-10.9920654296875,0.51075279712677,-8.72701172289777,-10.1529703140259,0.174662292003632
279,-2.19910526181332,-10.9523954391479,4.22947263717651,-10.1934166329802,-10.1546030044556,0.738262951374054
280,-12.6685240179333,-11.0048370361328,0.524236142635345,-13.9148770593932,-10.1346092224121,0.341461509466171
281,-2.78453597386138,-10.8967905044556,0.635455071926117,-2.417036285272,-9.99905586242676,0.0940975546836853
282,0.018487061179727,-10.7931604385376,0.754071414470673,-3.87540055769468,-9.89474582672119,0.374814420938492
283,-10.5203844821828,-10.7593908309937,0.64263129234314,-5.23275189723699,-9.84350967407227,0.311771869659424
284,-11.6837027491145,-10.7801599502563,0.564324915409088,-8.49896732551522,-9.82634830474854,0.278494387865067
285,-13.9816478331634,-10.7765350341797,0.639354288578033,-6.60416937000385,-9.79538726806641,0.308091044425964
286,-8.80436765303813,-10.7438716888428,0.585810303688049,-1.8491739482449,-9.70703029632568,0.205748155713081
287,-7.69015911567085,-10.6900730133057,0.653807580471039,-12.698118443841,-9.7362060546875,0.319896757602692
288,-3.69092194687857,-10.6525421142578,0.689130544662476,1.37712154692149,-9.60839748382568,0.400483191013336
289,-9.61230497077851,-10.6477451324463,0.555384397506714,-7.04662166862002,-9.56677055358887,0.263813048601151
290,-10.126170827343,-10.6520509719849,0.643641173839569,-8.7762744066133,-9.53616523742676,0.315174639225006
291,-6.41280401809476,-10.6182422637939,0.761181354522705,-15.2293115164586,-9.57665824890137,0.508844971656799
292,-11.7366578909196,-10.6498699188232,0.594914138317108,-4.5989704309268,-9.57885551452637,0.368166148662567
293,-9.88985839191653,-10.6264600753784,0.693701982498169,-10.6617829913837,-9.57640647888184,0.492302000522614
294,-2.70331634183025,-10.5571756362915,1.08664524555206,0.922415000678559,-9.50192451477051,0.388328105211258
295,-18.976970634418,-10.640772819519,0.548898279666901,-5.11447881498898,-9.45964908599854,0.359606981277466
296,-3.29050591401054,-10.5876331329346,0.579222202301025,-9.86211420961904,-9.47602462768555,0.0383509546518326
297,-2.85901553388903,-10.5162401199341,4.9284348487854,-15.1400481195623,-9.48525333404541,3.20928478240967
298,-6.32787767138896,-10.4795560836792,0.581875741481781,-5.11425369798289,-9.40508651733398,0.364561170339584
299,-2.93789700118606,-10.3998947143555,0.565657436847687,2.66507584199893,-9.35647201538086,0.278795033693314
300,-8.46455432090307,-10.3465185165405,0.598725438117981,-5.85543387349948,-9.31076431274414,0.355905055999756
301,-14.3369547385342,-10.3238840103149,0.512914419174194,-12.0406362234978,-9.31471061706543,0.221187919378281
302,-3.97049916011484,-10.2782821655273,1.01429688930511,1.60282896254224,-9.22068023681641,0.330860555171967
303,-4.74632597865234,-10.2192907333374,0.661414563655853,-13.2199840495847,-9.23039722442627,0.341135084629059
304,-7.6818293696716,-10.202938079834,0.778731346130371,-0.735683632689028,-9.14212512969971,0.46045047044754
305,-7.70165108470923,-10.2092056274414,0.569445073604584,-5.19299936983773,-9.11331558227539,0.359371900558472
306,-5.91767217509426,-10.1806592941284,0.481656849384308,-1.86902199273286,-9.06630706787109,0.293681919574738
307,-7.56680082316074,-10.1319284439087,0.403935581445694,-0.759541965938701,-8.99458980560303,-0.00570914475247264
308,-4.52696153581365,-10.1065587997437,0.491850793361664,-10.6035623943918,-8.96352958679199,0.211290284991264
309,-6.41748680555389,-10.0649108886719,0.49448823928833,-7.65191084285315,-8.9265661239624,0.435247719287872
310,-3.27251686735478,-9.99069213867188,0.559427440166473,-7.35935395496745,-8.8712911605835,0.197930231690407
311,-10.8404314666507,-9.99368858337402,5.09868001937866,-6.95401296021509,-8.85670471191406,2.11961698532104
312,-9.09776891650218,-9.97356414794922,0.621562063694,-1.70730749808596,-8.77058792114258,0.356451600790024
313,-4.58756081542318,-9.89913272857666,0.548264443874359,-9.51464719303949,-8.76273632049561,0.326579123735428
314,-12.8514650804506,-9.85645389556885,0.55442875623703,-8.30306117389251,-8.7300910949707,0.211475193500519
315,-6.10191240719798,-9.81502532958984,0.585095226764679,-1.22471632923149,-8.65503120422363,0.212918013334274
316,-13.2037989521748,-9.85099601745605,0.539481580257416,-4.70404289469492,-8.59819507598877,0.240339025855064
317,-2.54360447826012,-9.77272987365723,0.507346510887146,-6.74335192783563,-8.56940746307373,0.266301214694977
318,-17.5093822686948,-9.80704689025879,0.515598893165588,-9.84905795185763,-8.59226608276367,0.100414872169495
319,-4.84139467335104,-9.76295471191406,0.387427389621735,-11.9018022314029,-8.6122407913208,0.0275822672992945
320,-5.12258344398214,-9.70084762573242,0.596102952957153,-2.56022045851583,-8.57987689971924,0.417218267917633
321,-13.9409517280988,-9.68518161773682,0.853698074817657,-5.86686778270227,-8.53547954559326,0.683223843574524
322,-7.11281582272059,-9.64664363861084,0.515933871269226,-8.6512902231125,-8.52847290039062,0.138108924031258
323,-6.37600722176997,-9.64962673187256,0.533696711063385,-5.49096616632865,-8.52160167694092,0.318539768457413
324,-1.26605050894453,-9.59832382202148,1.66165912151337,-5.01011341082073,-8.49546527862549,1.0775933265686
325,-15.2256645579185,-9.5952787399292,0.583676815032959,-1.69472884677032,-8.44787502288818,0.617254376411438
326,-12.4616543035855,-9.62766265869141,0.667179822921753,-9.56680082316074,-8.45671653747559,0.334914743900299
327,-8.93230376426014,-9.58162307739258,0.941024661064148,-7.65191084285315,-8.45044136047363,0.585625886917114
328,-16.2873860307529,-9.61948394775391,0.95893383026123,-10.6107221581091,-8.43675994873047,0.494042456150055
329,-5.13141337581314,-9.57743835449219,0.960696876049042,-8.94948658254473,-8.4133472442627,0.724179744720459
330,-4.51066815397351,-9.51590919494629,0.647380709648132,-5.20682768271728,-8.38050174713135,0.380994737148285
331,-1.56036083710129,-9.47499370574951,0.56858366727829,-3.06329945313998,-8.32455539703369,0.295167803764343
332,-0.516103405943305,-9.4045238494873,0.59493362903595,-12.9592848874985,-8.38079738616943,0.247369483113289
333,-6.42818241113148,-9.37727928161621,0.705318748950958,-0.994219648907949,-8.33942699432373,0.465763688087463
334,-7.27563514292345,-9.36345195770264,0.536322355270386,-5.18562431620885,-8.30105972290039,0.342852652072906
335,-8.66382025685002,-9.34073448181152,0.513801217079163,-5.42217983238375,-8.24892425537109,0.237254410982132
336,-5.05837792522358,-9.29727649688721,0.735900521278381,-5.07500770429056,-8.20611095428467,0.571048676967621
337,-8.36220946812443,-9.29347610473633,0.646857500076294,-2.19460929940082,-8.16947460174561,0.389165937900543
338,-7.78024923231087,-9.29259967803955,0.704742968082428,-0.449829592680759,-8.0837345123291,0.356804549694061
339,-11.0310429733976,-9.31514549255371,0.721804916858673,1.24706990781486,-8.059250831604,0.424723923206329
340,-6.36425369798289,-9.25521564483643,0.852896153926849,-5.16932933884613,-8.05122566223145,0.685182213783264
341,-7.21035614776212,-9.24876022338867,0.832447588443756,-13.5054805396724,-8.06777000427246,0.544213950634003
342,-3.48170802456574,-9.21178436279297,0.520197093486786,-3.29019422403942,-8.02390956878662,0.239398330450058
343,-8.00416937000385,-9.18033981323242,0.720596194267273,-1.87787767138896,-7.95995616912842,0.381795346736908
344,-2.56524377119023,-9.10213375091553,0.626565754413605,-5.39704152608562,-7.89586162567139,0.234631955623627
345,-7.65555780139327,-9.03991317749023,0.995898306369781,-0.00693449755897046,-7.84149980545044,0.599550306797028
346,-11.5793441248418,-9.0122652053833,0.554222881793976,-10.1179049585095,-7.81453227996826,0.410052865743637
347,-0.33241237571037,-8.9634370803833,1.04861211776733,-4.6223143591639,-7.77730703353882,0.377612859010696
348,-9.70008946282898,-8.92163944244385,0.480634182691574,-7.38571781074777,-7.75238037109375,0.33450573682785
349,4.01808485223583,-8.8215856552124,1.05164551734924,-12.7088140494186,-7.73286151885986,0.871388018131256
350,-10.7699840495847,-8.78602123260498,0.772523403167725,-3.27349962367235,-7.67898750305176,0.38162761926651
351,-16.4756645579185,-8.78384304046631,0.527410626411438,2.59298490459697,-7.58958339691162,0.202791273593903
352,-3.34605823412532,-8.7620153427124,0.329414397478104,-4.7293104753708,-7.55750894546509,-0.0532244145870209
353,-5.85810465848075,-8.73687744140625,0.594394445419312,-8.04767537359645,-7.56568098068237,0.456189870834351
354,-7.67633987783923,-8.74326133728027,0.963506877422333,1.4097700910659,-7.49930000305176,0.861178874969482
355,-4.88814729259048,-8.66261005401611,0.548982918262482,-0.740917137341692,-7.43387031555176,0.434601783752441
356,-8.51308084301927,-8.61787796020508,0.648003816604614,-7.3948037950856,-7.39836406707764,0.341893196105957
357,-7.9210900743215,-8.6035099029541,0.805558443069458,-8.38837334833951,-7.39274740219116,0.191900283098221
358,-4.3319854085348,-8.52975940704346,4.09899377822876,-10.6856072983638,-7.39385271072388,1.51318514347076
359,-0.470835916231371,-8.45667552947998,0.588483989238739,-3.11975416293926,-7.3718113899231,0.229762271046638
360,-9.09941641820255,-8.43598365783691,1.08052432537079,-6.40406664178559,-7.36326837539673,0.766317427158356
361,-3.90815933868001,-8.42161750793457,1.09081220626831,-7.70213582021022,-7.33848810195923,0.751461565494537
362,-13.7451172973822,-8.42355346679688,0.750732004642487,-5.48327053219951,-7.2871356010437,0.225272580981255
363,-0.939712341581857,-8.33629131317139,0.567967355251312,-1.3881680649392,-7.28498840332031,0.335527807474136
364,-9.48621897992993,-8.35089015960693,0.517488718032837,-5.17331299504452,-7.22702407836914,0.251471191644669
365,-12.0854859527841,-8.35662364959717,0.647788047790527,-7.25940609470572,-7.23619890213013,0.391593396663666
366,-6.44949816058997,-8.29809188842773,0.508134961128235,-2.05166892430028,-7.2071270942688,0.312687665224075
367,-8.05055041233196,-8.27118110656738,0.371935039758682,-9.15278230589003,-7.1761474609375,0.212975531816483
368,-10.8062309206657,-8.28676986694336,0.513322055339813,-4.90108253982541,-7.13385343551636,0.291857212781906
369,-9.98470137035837,-8.27439880371094,0.898670017719269,-9.53930712858506,-7.14515447616577,0.390326946973801
370,-10.2266547316146,-8.28308391571045,0.63734632730484,-0.461233101452689,-7.0803279876709,0.36754184961319
371,-0.0684973511292183,-8.223952293396,1.09874629974365,-10.1661186668502,-7.10516786575317,0.755076587200165
372,-3.94854885714132,-8.22108173370361,0.491568177938461,-7.39237161719486,-7.09915208816528,0.443510800600052
373,-5.02153081221803,-8.18668174743652,3.88714790344238,-4.94948973561007,-7.07278394699097,2.21182537078857
374,-6.44380607421097,-8.18819046020508,1.18953049182892,-1.23198733340881,-7.05517911911011,0.878530204296112
375,-4.02612467933113,-8.16024303436279,0.544859826564789,-5.07798368058004,-7.03194761276245,0.508048832416534
376,-5.98354660167747,-8.17778396606445,0.592813551425934,-0.315851299500307,-6.99951982498169,0.396584153175354
377,-8.06993396190094,-8.14610385894775,0.764709293842316,-9.33058770627682,-6.97659349441528,0.473641365766525
378,-12.5657362712828,-8.16686725616455,1.58699798583984,-9.5509193125765,-7.0004825592041,1.75434410572052
379,-2.52685254282128,-8.07045459747314,0.989560604095459,-10.2031335410849,-6.99180173873901,0.862074613571167
380,-5.28205262088098,-8.052659034729,0.708427369594574,2.33595449583826,-6.89840078353882,0.487650573253632
381,-5.0970708796983,-7.98724269866943,1.00267291069031,1.24306550244103,-6.82261371612549,0.733177781105042
382,-12.6404316733567,-8.0081090927124,1.04922866821289,-12.1405306394317,-6.87207269668579,0.778948366641998
383,-12.6523980363192,-8.01976299285889,0.0589734204113483,-14.431735776767,-6.95914649963379,-0.338417828083038
384,-0.429621504655935,-7.91445302963257,1.10634362697601,-10.0413940492525,-6.99460935592651,0.769345700740814
385,-1.69840124309146,-7.85812330245972,0.723058521747589,1.69357511202204,-6.92598628997803,0.415242373943329
386,2.74648564795549,-7.76360845565796,0.609994232654572,-0.552335290001275,-6.86923360824585,0.302975296974182
387,-6.80549400722573,-7.77090644836426,0.723253428936005,-2.31202770937253,-6.74135112762451,0.367689043283463
388,-1.48584989224808,-7.6878776550293,2.47921061515808,2.00616341245599,-6.68566703796387,1.33382546901703
389,-3.29286151278511,-7.5788459777832,1.5316379070282,-3.8177859643742,-6.6586594581604,1.01742851734161
390,-1.37147677423004,-7.5463981628418,0.951408624649048,1.55981359055911,-6.56566047668457,0.974872887134552
391,-8.10718022190126,-7.57814788818359,0.64517605304718,-11.0913673979023,-6.57285118103027,0.425328373908997
392,-4.40782877750055,-7.56795501708984,0.804147839546204,-5.63136194790086,-6.50812244415283,0.523740410804749
393,-6.65839805556015,-7.55412578582764,0.512980818748474,-2.08113534632302,-6.44849872589111,0.143296241760254
394,-3.62405761955152,-7.51142024993896,1.06417548656464,-6.06122892022167,-6.44250535964966,0.798075973987579
395,-8.27883840089267,-7.48470211029053,0.509325504302979,-5.24754482438318,-6.39567518234253,0.234661608934402
396,-6.84856210006145,-7.4485912322998,0.573444664478302,6.44251013894721,-6.24806118011475,0.25754576921463
397,-3.69458448986907,-7.38895177841187,0.385938793420792,-7.86828506516478,-6.26598072052002,0.320793718099594
398,0.587927689632318,-7.32402753829956,0.753302454948425,-1.2192740371252,-6.18012762069702,0.514669358730316
399,-5.00478165625028,-7.26926517486572,1.01848769187927,-0.798111491790056,-6.1411452293396,0.724848806858063
400,-10.3075562428183,-7.26415538787842,0.478248775005341,1.14794409880993,-6.05638456344604,0.300430566072464
401,-4.22393786667326,-7.26647233963013,1.6800936460495,-0.891617931571359,-6.03613615036011,2.38743758201599
402,-1.18524143854481,-7.25157403945923,1.00563204288483,-1.36375616294001,-5.9746298789978,0.732848942279816
403,-9.91492533162287,-7.24139547348022,0.742048978805542,-8.5883545512348,-5.9985671043396,0.507747769355774
404,-9.97366183002103,-7.28236246109009,0.780770659446716,-2.60966655098275,-5.98163270950317,0.512992858886719
405,-6.25140069452813,-7.26454496383667,0.719661355018616,-4.31160594216216,-5.99393367767334,0.209566801786423
406,-10.2766233493212,-7.2634015083313,0.737079858779907,-4.64817716796696,-5.94868612289429,0.285351753234863
407,-7.57841740015479,-7.21302080154419,1.02885115146637,-0.631945832374489,-5.88387584686279,0.583229541778564
408,-7.28721617381753,-7.20894384384155,0.818480730056763,-3.29699843329575,-5.84941101074219,0.383313715457916
409,-8.84828359164904,-7.21686267852783,0.852175652980804,-5.98295288564105,-5.87280607223511,0.479036629199982
410,-9.34882464432237,-7.20048522949219,0.819304466247559,0.239504364102243,-5.81402063369751,0.317464798688889
411,0.813447413378591,-7.1287899017334,0.834086775779724,-0.487898429422972,-5.79628038406372,0.934498608112335
412,-6.48781522914329,-7.10786199569702,0.717676937580109,-5.26616133654566,-5.79561424255371,0.350202322006226
413,-5.42473369557711,-7.06024742126465,0.56599348783493,-0.505494320681999,-5.75205087661743,0.410412281751633
414,-0.106243377163254,-6.9723105430603,0.790545225143433,-1.564956872592,-5.66816282272339,0.495946675539017
415,-3.81855020451508,-6.94166326522827,1.28058338165283,-5.08509417515892,-5.6015305519104,1.00200748443604
416,-2.04844108384434,-6.9048171043396,0.906191229820251,-0.1225603035278,-5.56115579605103,0.738054811954498
417,-2.91483722822919,-6.85322189331055,0.759281575679779,-7.19748319383446,-5.55710792541504,0.403706699609756
418,-9.72009315883272,-6.81891107559204,0.739325881004333,-13.0846495965121,-5.53813886642456,0.479345500469208
419,-3.19279081404095,-6.83818197250366,0.560590088367462,-7.2613982856665,-5.4984016418457,0.219129681587219
420,-7.00975105737335,-6.82037591934204,0.707647264003754,-1.64613857829914,-5.41945886611938,0.301883608102798
421,-3.80837792522358,-6.78270673751831,0.968970537185669,-5.14197424127005,-5.40912914276123,0.667006194591522
422,2.7847175767329,-6.74526834487915,0.746540546417236,3.55753070793826,-5.31556415557861,0.668127834796906
423,-13.9691773452115,-6.76564121246338,0.842311859130859,-10.955906588886,-5.28028297424316,0.503874242305756
424,-7.53350196166694,-6.78046369552612,0.787642359733582,0.379240207950594,-5.22264385223389,0.288471400737762
425,-1.82753074334436,-6.71581745147705,0.831696569919586,-1.56396585686725,-5.14657354354858,0.359329372644424
426,3.32418770182238,-6.652587890625,0.630923449993134,-5.2049760743771,-5.15667343139648,0.322291046380997
427,1.06140498122043,-6.5439829826355,0.70416396856308,-0.70739202307764,-5.10358619689941,0.369271725416183
428,-5.60122268317906,-6.52923917770386,0.69913911819458,-9.5249869106983,-5.10890626907349,0.284599602222443
429,-5.78805559157672,-6.55316543579102,0.788361668586731,-4.8900483219114,-5.07355070114136,0.387576639652252
430,-7.05372993596068,-6.51573371887207,0.342096507549286,-6.31018751788499,-5.02285242080688,0.253378242254257
431,-6.38837498310868,-6.53975915908813,1.15779304504395,0.1075728124139,-5.00602197647095,1.15188825130463
432,-0.466139270404526,-6.54298973083496,0.527994632720947,-0.723866275210893,-4.9850115776062,0.37711638212204
433,-14.9725214191351,-6.57267093658447,0.778574347496033,-9.17575545043998,-5.01129865646362,0.632059633731842
434,-4.55606619274052,-6.52515363693237,0.974746227264404,-12.4295929385168,-5.03750276565552,0.664150655269623
435,-0.711154391921592,-6.436683177948,0.443477213382721,3.94732370867714,-4.96715927124023,0.298221558332443
436,1.41445287852502,-6.36855792999268,1.22906196117401,-6.40740033468552,-4.99754762649536,1.08739221096039
437,0.528785284010876,-6.31376457214355,0.328104496002197,-11.1932656230049,-4.98751497268677,0.280809044837952
438,0.499261121304891,-6.28583002090454,0.879640758037567,-1.31135659398401,-5.00543832778931,0.627758264541626
439,-2.69001372060496,-6.23968172073364,0.761192142963409,-4.67249379756847,-4.98961114883423,0.557949423789978
440,-6.42714658221247,-6.21502161026001,1.08783638477325,-2.61362142281933,-4.94852638244629,0.789167523384094
441,-1.31665481783697,-6.1810474395752,1.14884960651398,-3.85308369781676,-4.87268495559692,0.853250563144684
442,0.634422323025713,-6.09857320785522,0.762828648090363,2.84586145796555,-4.82305288314819,0.613868117332458
443,1.6873329848835,-6.02139186859131,1.36288738250732,1.57556090098763,-4.74147033691406,2.57511830329895
444,-2.89133649318625,-6.02264547348022,0.731037437915802,-1.60921546028472,-4.75834798812866,0.70664381980896
445,-4.8223766124833,-5.92828130722046,0.684874475002289,-2.38065225453558,-4.74012231826782,0.454731315374374
446,-3.6260054174605,-5.93051815032959,0.716616988182068,-6.86506895536939,-4.72014236450195,0.650362730026245
447,-6.60667524594327,-5.95550203323364,0.72528612613678,2.63372295163718,-4.60165023803711,0.574218273162842
448,-6.16815090287342,-5.95443725585938,0.602505922317505,-1.31247554621858,-4.5763053894043,0.407815337181091
449,-4.83025923784303,-5.96705341339111,1.17627346515656,-2.61423055752855,-4.61150074005127,0.96257883310318
450,-1.54659632481409,-5.92093324661255,0.848142683506012,2.70379785289445,-4.55443906784058,0.552021205425262
451,-1.68892629150455,-5.83661317825317,0.844953238964081,-5.24193525805312,-4.50911474227905,0.533303499221802
452,1.58602507161899,-5.79957008361816,0.498457461595535,5.97058722254677,-4.47999572753906,0.344844162464142
453,-7.72925373971726,-5.81945610046387,0.69683450460434,1.39561524554642,-4.38255882263184,0.602776408195496
454,-8.9543217865218,-5.82793951034546,0.725371658802032,-4.98435208471893,-4.4108829498291,0.546246111392975
455,-3.05425855542632,-5.79695701599121,0.573184251785278,-3.30137081692858,-4.3982720375061,0.70943558216095
456,-10.0191271581274,-5.82429981231689,0.800354421138763,-0.754600997117938,-4.3908429145813,0.338995426893234
457,-0.773403369993069,-5.77901029586792,1.04222762584686,-8.91573622114714,-4.44521713256836,0.50253438949585
458,-9.30703762503896,-5.81087779998779,0.613734304904938,-4.61069605803082,-4.40526437759399,0.322527557611465
459,-2.85852414816223,-5.78715133666992,0.703732490539551,-1.54912012368982,-4.36458015441895,0.47957843542099
460,-8.81084544861822,-5.82407331466675,0.705355286598206,0.778015013364448,-4.31033039093018,0.914289057254791
461,-4.74249039288797,-5.7834210395813,0.571501314640045,-1.41150189729896,-4.27338075637817,0.508935034275055
462,2.63317187000845,-5.70521450042725,1.43737614154816,-6.39416862790195,-4.30462598800659,0.916437327861786
463,2.74720069856961,-5.65631580352783,0.623395562171936,-0.383078037374737,-4.24374914169312,0.301596105098724
464,0.838304779133178,-5.56505107879639,0.694885909557343,-1.84498680487545,-4.2006950378418,0.316280543804169
465,-2.60049712812006,-5.54170799255371,1.15464794635773,-2.6225603035278,-4.21001386642456,0.865509927272797
466,-2.55639003065287,-5.47072458267212,0.802540600299835,-2.54346638704933,-4.19561052322388,0.599332451820374
467,-0.0425632456427024,-5.45405101776123,1.14249539375305,-1.18960926823469,-4.15858554840088,0.875023603439331
468,4.70782387339991,-5.30593681335449,0.900939881801605,-0.0860992476510101,-4.09349870681763,0.640418589115143
469,-2.1723680510651,-5.28814315795898,1.08145475387573,-9.73379732799753,-4.07904577255249,0.718743324279785
470,-3.75201040586028,-5.27900648117065,1.34514570236206,-2.54949514000672,-4.07897424697876,0.960601329803467
471,-8.04296192616288,-5.23968648910522,0.614752888679504,-1.7939833890087,-4.05182123184204,0.379963845014572
472,-3.88141337581314,-5.21814393997192,1.41985642910004,-1.23800015152727,-4.00239992141724,1.09426486492157
473,-5.91529873760773,-5.21507263183594,0.439867228269577,-5.12166198706716,-3.99993777275085,0.350526452064514
474,-4.17270731044613,-5.23444986343384,0.550675809383392,-8.63396496564439,-4.02409648895264,0.407563328742981
475,0.0967583384460268,-5.13230085372925,1.41763699054718,-3.81306071268271,-4.03821897506714,1.1381014585495
476,-3.25424479642147,-5.07091808319092,0.73508620262146,-2.89785633934463,-3.99375939369202,0.42814177274704
477,1.43731957646886,-5.00178718566895,0.843621790409088,-4.82989428184046,-3.97494578361511,0.467377543449402
478,-9.79587522380838,-4.95850992202759,0.252952426671982,-9.12914135077601,-3.96506834030151,-0.094002828001976
479,-1.37173991058712,-4.9334454536438,0.577768743038177,-0.357200768273464,-3.90778636932373,0.338231116533279
480,-2.79537005982563,-4.92200994491577,1.59397518634796,-4.97551968923798,-3.9062442779541,3.34615063667297
481,0.25539199923438,-4.90990543365479,1.38935232162476,-0.0144872521164977,-3.88591885566711,1.0450701713562
482,18.6787599013424,-4.78193950653076,1.39965987205505,-2.4700583292482,-3.81599068641663,0.970418870449066
483,-5.13258409830217,-4.77330255508423,1.40751075744629,0.72935577668434,-3.80450034141541,0.377772301435471
484,-0.732560419163865,-4.72968196868896,1.06169843673706,-4.6803471945889,-3.80113196372986,0.712105751037598
485,-6.76473926660914,-4.71702146530151,1.52671957015991,-3.99066423413311,-3.79158854484558,1.45318460464478
486,-4.31475535120684,-4.71206378936768,0.91153872013092,-4.83601182224133,-3.78999519348145,0.773224711418152
487,-5.83254550689419,-4.69519948959351,0.793856620788574,2.99150155463629,-3.75542116165161,0.66789835691452
488,-5.85288200125055,-4.68235015869141,1.8804520368576,-3.71377653307272,-3.77718091011047,2.1689772605896
489,-1.22446429178281,-4.61697340011597,1.22974836826324,1.38247624198852,-3.77627801895142,0.980636656284332
490,-1.21812635137383,-4.58266592025757,0.41020792722702,-1.61860048941451,-3.75260663032532,0.350520312786102
491,-3.41421917155946,-4.5573582649231,1.53154742717743,-2.9908914367183,-3.68250966072083,0.950811326503754
492,-0.0959642099462013,-4.53478670120239,1.44774985313416,-5.11425369798289,-3.69466996192932,1.11411535739899
493,0.639078080011142,-4.47716474533081,1.0089465379715,-4.57468651252874,-3.71264886856079,0.725441694259644
494,0.141464111039207,-4.45912027359009,1.40194439888,-1.04461250231207,-3.68363285064697,1.00626182556152
495,2.1077611827095,-4.39403104782104,0.680122137069702,5.2810245111271,-3.64837980270386,0.518202424049377
496,-10.776428720143,-4.38867855072021,0.829771399497986,-13.9691773452115,-3.67405438423157,0.62545245885849
497,-3.7083678066472,-4.41118478775024,0.843644201755524,-2.65631680538776,-3.6609480381012,0.563214957714081
498,-2.92573305028135,-4.36602258682251,0.773148655891418,2.2261140755117,-3.59686899185181,0.443370282649994
499,0.983790978973452,-4.38625144958496,0.976816654205322,-5.75471056217024,-3.55050826072693,0.535755813121796
500,-2.27903653961133,-4.32964515686035,1.71380650997162,-3.88080424110392,-3.55455684661865,1.35372388362885
501,2.27372406509864,-4.20464897155762,0.555069744586945,5.46281521430103,-3.53542470932007,0.408717960119247
502,-2.50385293915253,-4.19903421401978,1.37182939052582,-0.0401676731328388,-3.50416374206543,0.965168297290802
503,-0.0263655842368679,-4.16015625,0.70750480890274,-0.329591572421988,-3.45270991325378,0.599934458732605
504,0.27977954148417,-4.10711526870728,0.802667200565338,-1.52141337581314,-3.47225093841553,0.698215246200562
505,-3.30870914290314,-4.09658527374268,0.605462729930878,-11.2134968368777,-3.54206824302673,0.488820821046829
506,-1.5851446469208,-4.05039930343628,0.584177076816559,0.468211086457461,-3.48964810371399,0.494873613119125
507,-1.7502722904718,-4.0092601776123,0.646119832992554,0.794548352805521,-3.42842864990234,0.510288238525391
508,0.544178305773477,-3.97675251960754,1.41095566749573,-1.71739221179198,-3.36864066123962,1.54887759685516
509,2.07626448923423,-3.95977210998535,0.587098717689514,0.602309550025625,-3.34382700920105,0.600922882556915
510,2.61596691198698,-3.88166952133179,2.0724241733551,4.9196137742159,-3.26833581924438,2.43338704109192
511,4.62405967794762,-3.82478809356689,5.75463819503784,3.96686686658363,-3.19054245948792,4.22536706924438
512,1.24464921757054,-3.72485637664795,1.39322936534882,-1.05895506642978,-3.16104698181152,1.09278094768524
513,-1.19089880642423,-3.72653079032898,1.31890463829041,-2.65768494409147,-3.16951036453247,1.10424149036407
514,-0.7687636167328,-3.66841435432434,0.836412250995636,1.60181657852121,-3.124342918396,0.574036359786987
515,-10.1085447199101,-3.65523481369019,3.97922492027283,1.94849489509048,-3.06295657157898,3.45288062095642
516,-0.879769966602571,-3.61810350418091,1.33547043800354,-1.25980446465737,-3.05767750740051,0.990753829479218
517,-2.38246814785954,-3.58031606674194,0.618256270885468,0.302798672567366,-2.9946403503418,0.572784960269928
518,3.44987263393296,-3.48527550697327,0.799570143222809,-1.12346963461579,-2.96945643424988,0.460727512836456
519,-5.94888255962315,-3.45836997032166,1.88128292560577,3.86884961811434,-2.8800687789917,1.4516499042511
520,-2.39426028529259,-3.40615391731262,1.04724907875061,-2.21035581602285,-2.89172983169556,0.855021953582764
521,-0.336379454018982,-3.40793991088867,1.17773330211639,-0.0133519503038856,-2.82404470443726,0.278012096881866
522,-6.43963602432723,-3.42454719543457,0.831168532371521,-3.91647588545837,-2.80087208747864,0.747722983360291
523,-3.06911779972728,-3.4115309715271,1.58537185192108,0.368205380793877,-2.76542043685913,0.99822461605072
524,-0.622467320436503,-3.37272214889526,0.889083206653595,3.12983876354384,-2.73634147644043,0.621456205844879
525,0.0711983890651504,-3.3454065322876,0.889699757099152,-4.80198386445449,-2.7345016002655,0.881497085094452
526,-3.0338566246059,-3.32574200630188,0.384719610214233,-3.78144328069669,-2.75760555267334,0.468921631574631
527,-2.80778805434184,-3.29066109657288,0.434091031551361,-0.288288308176465,-2.69732356071472,0.403713136911392
528,2.98122810106211,-3.18701457977295,2.80200386047363,8.70969090995074,-2.57558608055115,3.98354983329773
529,-3.131587828141,-3.19104623794556,1.08509993553162,-1.34100648168081,-2.51650524139404,0.825168609619141
530,-0.385856938863059,-3.15840482711792,0.53996878862381,-2.83617507523285,-2.55098605155945,0.478137075901031
531,2.75204011907495,-3.10607743263245,0.598390460014343,0.137595652427418,-2.55835580825806,0.362309813499451
532,1.28919103456104,-3.01321339607239,0.346087753772736,1.23153216578828,-2.46920895576477,0.323567003011703
533,-0.0395585384236173,-2.92912769317627,1.80184030532837,-1.26264471882425,-2.38141489028931,1.49471163749695
534,-6.23782528674229,-2.96784901618958,1.06750881671906,-1.03551392241424,-2.32137584686279,0.92186313867569
535,-10.3499031583295,-3.02552556991577,0.488236576318741,-7.78759253919691,-2.38458347320557,0.484118342399597
536,-1.653165571735,-3.05485653877258,0.899945795536041,-0.243038589642982,-2.3825216293335,0.716053903102875
537,0.258620605258929,-3.00776267051697,1.63326561450958,-1.34657334465542,-2.37608528137207,1.33731150627136
538,0.84624448672039,-2.99221539497375,1.77395105361938,1.54058696653169,-2.37918901443481,2.74575662612915
539,1.27501242604601,-2.96176266670227,1.73145639896393,1.2389621367596,-2.34547734260559,1.51509761810303
540,-1.53900031871201,-2.96287965774536,1.4129490852356,0.00522259583919421,-2.35584139823914,0.749313831329346
541,2.37886318918867,-2.89297270774841,1.24790155887604,-0.974042747476943,-2.28839254379272,0.53913277387619
542,-3.41126571063749,-2.88632893562317,0.991930723190308,-2.49125421623126,-2.26745843887329,0.617073953151703
543,-8.86732925304064,-2.90105509757996,0.751667559146881,-3.27896342980784,-2.27544403076172,0.506745576858521
544,-7.11763927234348,-2.92434573173523,0.870907723903656,-17.9205142057181,-2.35450553894043,0.760333359241486
545,1.33304612886266,-2.86026644706726,0.796896994113922,0.92007241231043,-2.31338834762573,0.730652749538422
546,-1.48379761336338,-2.82450127601624,2.74894595146179,-0.929075552966936,-2.36253237724304,2.59518933296204
547,-1.7008783795072,-2.81120991706848,0.661040902137756,0.279791585418649,-2.30821180343628,0.788109481334686
548,4.67999982331095,-2.78392934799194,0.538987457752228,-2.36896048354868,-2.31587624549866,0.547716677188873
549,-4.58996493292518,-2.78116393089294,0.936226725578308,0.517354863058162,-2.30710673332214,0.83522754907608
550,-2.46426831973709,-2.72887539863586,0.805043637752533,-12.7295547987162,-2.39962315559387,0.518468379974365
551,-4.23139834657218,-2.72892498970032,0.879099071025848,-1.85233539417359,-2.40602779388428,0.529946863651276
552,3.03854988907972,-2.70076656341553,0.907001852989197,4.78292250620992,-2.36505007743835,0.689445495605469
553,2.15834171888781,-2.62027812004089,1.66551852226257,-0.873442796988156,-2.31361746788025,1.2351176738739
554,0.022172171879131,-2.55363941192627,2.00295281410217,4.45449862691517,-2.26652312278748,1.68303978443146
555,-3.88210937385011,-2.53784394264221,1.16188895702362,-2.09044768098975,-2.25171542167664,0.93131148815155
556,1.69248590218533,-2.4580500125885,1.06765580177307,-6.26833643151259,-2.26251626014709,0.729255318641663
557,2.64624448672039,-2.38988542556763,1.32152819633484,-0.730581834431707,-2.26317381858826,1.69637262821198
558,-3.07144542129227,-2.36178040504456,1.20318794250488,1.66668268421229,-2.23008275032043,0.944177985191345
559,3.11241728694302,-2.28204250335693,2.45404100418091,4.82192194484327,-2.1580502986908,2.43948030471802
560,0.273810349699356,-2.21789169311523,1.77225208282471,-3.09380788190202,-2.18027234077454,1.37415957450867
561,2.70731611782595,-2.20526576042175,1.87645375728607,1.37166176802065,-2.16787528991699,1.47912776470184
562,-2.15183022475596,-2.17635893821716,1.25446331501007,6.30369338485414,-2.09074306488037,0.847292602062225
563,2.81496005168762,-2.12142777442932,1.25337111949921,0.328167287164561,-2.08518528938293,1.10102450847626
564,-1.28158611209087,-2.12926340103149,1.23734414577484,2.15919240175399,-2.06035757064819,0.877365112304688
565,3.67661285291332,-2.07929563522339,1.12902092933655,-5.46982863813041,-2.06292247772217,0.791440784931183
566,-6.10682813945294,-2.10635161399841,0.864351987838745,-0.414392699476876,-2.06486821174622,0.740032553672791
567,-1.38225628119425,-2.09613418579102,0.853515446186066,1.75864771020696,-2.00516033172607,0.644908905029297
568,-4.09205284362929,-2.05861401557922,1.2112238407135,-4.66291513250189,-1.9490157365799,1.42023169994354
569,1.32704739229817,-2.02848196029663,1.2702978849411,4.49370251830355,-1.87064814567566,1.35875296592712
570,-4.11854720210199,-2.00920724868774,1.14510929584503,-1.68853928138694,-1.87093102931976,0.909115493297577
571,-4.9608149810903,-2.01689004898071,0.891865789890289,-0.897984237344917,-1.84263753890991,0.749060094356537
572,1.97833872272225,-2.02226591110229,1.08306849002838,2.41608473024831,-1.85024738311768,0.721291542053223
573,1.24306550244103,-1.92085099220276,2.03858256340027,0.0291826667573161,-1.77701330184937,1.5569714307785
574,2.49768959002106,-1.8539764881134,3.33732414245605,7.35069609198402,-1.73053705692291,4.16107606887817
575,-0.491427192057222,-1.84506893157959,2.0729284286499,-0.923698747754028,-1.72626852989197,1.74734628200531
576,-0.253467055291046,-1.86892008781433,0.804354071617126,-5.73253363249072,-1.72978556156158,0.634069800376892
577,-4.01793058576274,-1.90278220176697,0.975999653339386,2.27496922715707,-1.70990312099457,1.90606987476349
578,0.757560341238874,-1.86039042472839,1.30637001991272,-0.283135566549267,-1.64829075336456,0.79629510641098
579,4.00311838168632,-1.79511594772339,0.70418918132782,4.59118113921499,-1.58508265018463,0.530629336833954
580,1.05822458187141,-1.74103617668152,1.07827174663544,1.34761364286666,-1.53403055667877,0.679852306842804
581,-10.7090430598707,-1.76984071731567,1.07276523113251,-8.50523592194348,-1.59144926071167,1.0204416513443
582,0.490257865838012,-1.76346480846405,0.892548620700836,-0.170255074710816,-1.58775854110718,0.604986906051636
583,4.5106613468472,-1.63357675075531,2.53287053108215,5.19741370769395,-1.49193739891052,3.57961511611938
584,-2.1770120779607,-1.61771631240845,0.857012391090393,-5.60572365678136,-1.44644486904144,0.832789480686188
585,-1.06178947378163,-1.62005400657654,1.14988887310028,-1.65487627614881,-1.48379290103912,0.944471478462219
586,0.514156673770775,-1.62605595588684,1.21886897087097,4.24155587955474,-1.41279983520508,1.12563347816467
587,-2.18994240260178,-1.64418089389801,1.02029514312744,1.68766430805356,-1.3269270658493,1.05883717536926
588,4.476248661606,-1.61766767501831,0.961669921875,-1.42217493868845,-1.32766580581665,1.00010418891907
589,1.37779345452939,-1.59054887294769,2.0906822681427,-2.62147677423004,-1.31399250030518,1.65124428272247
590,2.33231566011177,-1.53215253353119,1.36356592178345,3.9898857017811,-1.26996910572052,1.28387951850891
591,1.39146411103921,-1.51409828662872,2.22452759742737,1.45369887221735,-1.23459041118622,1.8863912820816
592,7.10136238225136,-1.47098529338837,0.888970196247101,-2.61404128037619,-1.27098977565765,0.680506527423859
593,1.80383918592782,-1.47020852565765,2.19374084472656,0.0748927327023107,-1.28099429607391,1.89276397228241
594,1.20888956860284,-1.44287371635437,2.0207097530365,-1.57196060110671,-1.28074586391449,2.34967446327209
595,-7.53798427259389,-1.46097779273987,1.20258975028992,-4.06748680555389,-1.29199159145355,1.06182444095612
596,-3.99295906163255,-1.46342432498932,1.75181484222412,0.865550906861921,-1.24045407772064,1.45710027217865
597,-0.65160119843576,-1.42372369766235,1.17974996566772,-0.630801703834527,-1.26221764087677,0.741371035575867
598,0.730065083075047,-1.3777357339859,1.3873895406723,-1.10781070647124,-1.26085305213928,1.23684287071228
599,2.36649549208679,-1.32975733280182,1.48343288898468,-9.93689217121652,-1.30967080593109,1.29671514034271
600,-4.67036036877228,-1.35058236122131,1.84571158885956,1.72622086071541,-1.31618797779083,1.36307144165039
601,-0.0235378940658636,-1.33947968482971,2.04116797447205,-1.23800015152727,-1.28949522972107,1.74963760375977
602,2.61259301651501,-1.3326358795166,2.16045999526978,-2.14402724413082,-1.3435925245285,1.68630921840668
603,-5.86672033824715,-1.32021903991699,0.696850419044495,-0.877230255773431,-1.35874485969543,0.746029138565063
604,-1.04959910338224,-1.26752090454102,1.39954245090485,-2.60449346559088,-1.34287917613983,0.985974609851837
605,-0.784393646341097,-1.25238835811615,1.56633925437927,6.4401651023399,-1.27793562412262,1.15277671813965
606,3.96627001809295,-1.15915238857269,1.55168223381042,-4.0391979772213,-1.29983294010162,0.866821050643921
607,-5.05052328237506,-1.18766665458679,1.20237505435944,0.775269991545287,-1.23522627353668,0.972056210041046
608,14.2910109990469,-1.03034627437592,1.08757877349854,-5.63181544290313,-1.24203372001648,0.702370166778564
609,3.30520563985411,-0.989254772663116,1.49566900730133,-1.04471597646634,-1.23867106437683,0.996483027935028
610,-5.9441177272437,-0.970143258571625,1.52156066894531,-6.51324064122142,-1.28727924823761,1.11414074897766
611,3.59094425131242,-0.914587020874023,1.56847071647644,2.64316622483641,-1.2602481842041,2.04007124900818
612,-0.179265933646648,-0.933336615562439,1.26360166072845,0.833610422259713,-1.21206295490265,1.00103175640106
613,-0.74774664870916,-0.956636250019073,1.00640511512756,-2.24170644100417,-1.22445392608643,1.0461653470993
614,5.41039470208239,-0.926155686378479,3.69701480865479,7.31818871222875,-1.16336607933044,3.72459554672241
615,-2.09486438108591,-0.922784805297852,3.1964476108551,-6.77658085111849,-1.19105958938599,3.71407723426819
616,-5.11514161764365,-0.939843118190765,1.41991364955902,1.93111597063256,-1.16122901439667,1.19517779350281
617,-1.2675250759474,-0.948009431362152,1.75848865509033,3.34096543833774,-1.13102519512177,1.63241314888
618,6.66145401377757,-0.934985220432281,1.91224801540375,0.690096882455615,-1.12585055828094,2.63466930389404
619,-2.64086738659377,-0.938108623027802,1.47137439250946,-3.60869045485499,-1.08501648902893,1.10320711135864
620,-4.42205034250786,-0.942575573921204,1.22430646419525,4.43749999178014,-1.03843653202057,1.1155401468277
621,4.0498225144973,-0.86195707321167,2.54632759094238,2.33237737222468,-1.01092743873596,3.63616561889648
622,-1.51256174186676,-0.846164762973785,1.70671689510345,0.694280080769321,-0.998045563697815,1.749755859375
623,7.33490609653548,-0.757830023765564,1.43089306354523,3.92151043099949,-0.937757790088654,1.16506826877594
624,0.0702440370243894,-0.729543685913086,0.73118257522583,1.24446509464536,-0.871901571750641,0.65547913312912
625,2.24417705032802,-0.715227484703064,0.784876227378845,0.0813725654038296,-0.845938682556152,0.626858413219452
626,-2.81196203063898,-0.71227890253067,1.13241493701935,5.00270739152281,-0.793268203735352,1.17559015750885
627,-2.63264677439617,-0.739412009716034,1.9577579498291,-2.45992415800107,-0.777468383312225,1.60951256752014
628,-1.91065177115723,-0.686843872070312,1.07500267028809,3.40766194639702,-0.693889677524567,0.950609028339386
629,1.36882151385377,-0.668573439121246,1.7860209941864,0.0157080996264677,-0.69140362739563,1.38813030719757
630,3.1401926081706,-0.629003047943115,1.30905783176422,3.73907789297225,-0.633306205272675,1.09302270412445
631,0.297614560794532,-0.628721594810486,0.837742805480957,-5.06331085299286,-0.666965007781982,0.813228666782379
632,-0.0791334971665421,-0.753774225711823,1.38217675685883,-2.56804144547991,-0.667618274688721,0.856180548667908
633,-1.25046099486076,-0.727893352508545,2.32055926322937,4.83023726104108,-0.640279054641724,4.23412370681763
634,-5.1632784126833,-0.75743156671524,1.50530159473419,2.31057837350639,-0.593672931194305,1.13305819034576
635,-2.55553767105671,-0.72937023639679,2.25820899009705,1.34675833844603,-0.558090031147003,1.8163743019104
636,4.05698531475578,-0.673558592796326,1.33252358436584,-2.86905414197719,-0.544977009296417,0.887570679187775
637,1.45870214644335,-0.624950230121613,2.03551816940308,2.77627781813206,-0.546411871910095,1.62880992889404
638,1.82562823198683,-0.573760151863098,1.54345369338989,1.277714273352,-0.513135254383087,1.20674157142639
639,-0.0461804912513028,-0.565904974937439,1.71144008636475,1.25297896356979,-0.513998508453369,1.41187071800232
640,6.7854681828981,-0.512547671794891,1.55866932868958,6.27770075638937,-0.461356520652771,1.36182999610901
641,4.17713323996289,-0.461938679218292,1.85910618305206,0.561085402629307,-0.437676697969437,1.40833985805511
642,-1.08678914440438,-0.468544155359268,1.5309864282608,1.76616487386444,-0.39180725812912,1.27517807483673
643,0.773511562221999,-0.467647910118103,1.29139077663422,-0.0641532556569756,-0.361737012863159,1.0145651102066
644,-5.71439934137132,-0.506686985492706,3.9172990322113,-0.376683544610441,-0.357284128665924,3.9655179977417
645,3.08947502535147,-0.500142216682434,1.433100938797,-4.26892164305529,-0.420950472354889,1.29996204376221
646,-0.0318379271335892,-0.428511649370193,1.86150455474854,1.31425841973834,-0.319060862064362,1.61483669281006
647,0.342110450575957,-0.401508450508118,1.32268106937408,0.412062199869741,-0.298605054616928,1.14193141460419
648,0.360143562529062,-0.379602611064911,2.41042971611023,-2.62492616310614,-0.330945283174515,2.0616090297699
649,-3.51571038117424,-0.409599304199219,1.15557765960693,-1.04254098366956,-0.299530804157257,1.02398073673248
650,0.785788122608145,-0.389167129993439,1.68400466442108,-5.78463145414317,-0.312222987413406,1.34069812297821
651,-1.09671712164111,-0.411636710166931,1.90658974647522,2.68163569680961,-0.330764174461365,1.67637300491333
652,3.55179608565402,-0.371265709400177,1.22216796875,4.45135094407495,-0.300820708274841,1.18873655796051
653,-2.72426165765133,-0.389251708984375,0.514223754405975,-0.661181131680663,-0.303031355142593,0.546817600727081
654,4.78662000835337,-0.359206080436707,1.45418858528137,-6.32525800946242,-0.335056960582733,2.01711416244507
655,-1.33774341282442,-0.346066325902939,2.32109022140503,3.60888685035367,-0.236241102218628,1.60934245586395
656,6.09652784245476,-0.294855207204819,1.34378492832184,4.47640656354182,-0.209519803524017,1.08311867713928
657,0.73107326353291,-0.278312891721725,1.52074885368347,1.96370697592548,-0.201725408434868,1.15293908119202
658,2.1149325526295,-0.267841190099716,1.54842662811279,1.61569212055085,-0.179504856467247,1.02933180332184
659,-1.02317756862521,-0.288504123687744,1.02327024936676,-4.02080754499153,-0.210325628519058,0.753732860088348
660,-3.39151000073111,-0.328553974628448,1.46206963062286,-2.86325955487704,-0.262211441993713,0.35115784406662
661,-0.904009511195669,-0.365407764911652,1.47891187667847,-6.76922575344409,-0.33378541469574,0.334378391504288
662,2.40900865467837,-0.357645362615585,2.83354997634888,-0.0197336364677424,-0.32685723900795,4.70634651184082
663,1.74833247534951,-0.338050484657288,1.67783045768738,1.22518403432425,-0.300971418619156,1.32868421077728
664,3.1621424994688,-0.311844438314438,1.30244112014771,2.99983649924709,-0.29165130853653,0.957808613777161
665,-8.95610779381686,-0.30416151881218,1.46527183055878,-9.39405549144244,-0.367268323898315,1.04090583324432
666,2.45362114062986,-0.281938940286636,1.8152562379837,1.82989886800571,-0.346670299768448,1.12301671504974
667,-0.490620487683976,-0.269326597452164,2.47391319274902,0.341118210952223,-0.346414834260941,2.10932469367981
668,-6.96432273491196,-0.338754564523697,8.19832706451416,3.35171967761537,-0.316580265760422,6.30017805099487
669,-1.38323488984741,-0.308316946029663,1.1117250919342,-1.3864036069769,-0.351615279912949,0.849422097206116
670,2.09882601108689,-0.278363078832626,1.42300760746002,-2.96699974146011,-0.356659561395645,1.27191042900085
671,1.3480205480537,-0.267133742570877,1.86617136001587,2.33961200145277,-0.340973168611526,2.11663389205933
672,8.63197714028395,-0.166656315326691,2.71005344390869,1.39729320069477,-0.305548042058945,2.30479526519775
673,8.93057897728061,-0.0866583436727524,0.724850058555603,2.82950494869447,-0.289139360189438,0.61752051115036
674,1.27800696997972,-0.0739884898066521,1.50975966453552,4.0620272443429,-0.282924741506577,1.18907654285431
675,0.806315902019202,-0.0690877065062523,1.60593271255493,1.25730025056257,-0.24252949655056,2.17947125434875
676,5.80501585458873,-0.0101618943735957,1.6272566318512,2.34781104524465,-0.201667815446854,0.926127433776855
677,5.37431203916581,0.0443854257464409,2.29190874099731,0.991416079174079,-0.193136468529701,1.43349874019623
678,-4.60927190979057,-0.00621790392324328,2.19384813308716,2.84198724764378,-0.232254505157471,2.0647976398468
679,-7.2386324167974,-0.0335981994867325,1.13799786567688,0.943250539170648,-0.217026084661484,0.706880450248718
680,2.33242496971148,-0.0154763218015432,1.32081091403961,-4.09831100677602,-0.225440323352814,0.975660085678101
681,3.03717632944537,-0.0135754076763988,1.8487720489502,-4.49616975634998,-0.256332099437714,1.76189315319061
682,-1.51771928775309,-0.0322881266474724,1.4422687292099,1.96538201332031,-0.251439779996872,1.02617180347443
683,4.87887153853371,0.000501410162542015,3.13471221923828,3.15816771400162,-0.221967667341232,4.24301719665527
684,7.42936702447773,0.0916160121560097,2.64978218078613,2.81533467814803,-0.196295350790024,3.22750306129456
685,3.00066808801789,0.180619806051254,1.68070566654205,-0.953682492420619,-0.150735944509506,1.54038429260254
686,0.986704185360112,0.198218911886215,0.827319800853729,-0.590980384093821,-0.15305557847023,0.681577742099762
687,-5.43866593335174,0.160237014293671,1.4980331659317,-1.69304059876453,-0.155365377664566,1.61436378955841
688,2.02888273569101,0.168121248483658,1.12322926521301,-1.5357879124638,-0.175874546170235,1.07965409755707
689,-2.74488154806636,0.141321957111359,1.76089346408844,-1.47792098005878,-0.193987086415291,2.08665323257446
690,0.1933467959399,0.152870923280716,1.07542097568512,3.58935537697081,-0.170092836022377,0.930645287036896
691,3.79684276456265,0.162324145436287,2.34380769729614,2.28122793521729,-0.148391053080559,0.938466370105743
692,2.57577215162699,0.202237695455551,1.13858151435852,2.21321855583541,-0.117027893662453,0.919436573982239
693,1.40716876019487,0.270734369754791,1.22875094413757,-2.97149797184145,-0.11497812718153,1.09306991100311
694,3.62730306722128,0.342367351055145,2.56303715705872,1.34258809773472,0.0134425349533558,2.17968106269836
695,-2.42738196659193,0.31729781627655,1.65896952152252,-3.12105007131246,-0.0134982811287045,1.59694266319275
696,-4.78521418276919,0.295288383960724,2.65163278579712,6.9028279403974,0.0387144200503826,2.22014594078064
697,6.45674129406706,0.349672555923462,1.57305693626404,3.95866840198033,0.0632402822375298,1.34544742107391
698,0.774595823536533,0.323636472225189,1.32385325431824,-0.479942219467162,0.0758337378501892,1.18043911457062
699,6.0413742422122,0.394512087106705,1.42994797229767,-5.42354478318943,0.0362277366220951,1.48240625858307
700,-1.86195017830828,0.398527532815933,1.54120182991028,-9.75633448259183,0.0560492053627968,1.38682317733765
701,0.0681393039981301,0.427191108465195,0.93864232301712,-1.69446723192538,0.0571016706526279,0.380850076675415
702,0.844265469601081,0.412562549114227,1.27421164512634,-0.304430085741974,0.0231859851628542,1.10338807106018
703,-3.56735368150179,0.374391257762909,1.45512354373932,-1.15403653961133,0.0213153585791588,1.16677033901215
704,-4.4933165823786,0.34428796172142,1.42509174346924,-0.0364133758131412,-0.00862406380474567,1.36743485927582
705,-3.03418756625684,0.349940806627274,2.5055878162384,0.64001107943629,0.00957898423075676,1.84077537059784
706,0.946671825740985,0.3449687063694,4.55434608459473,3.32355744998178,0.0735249444842339,4.48422718048096
707,2.58088819880532,0.344533026218414,2.52264881134033,-1.34010927240276,0.069461427628994,2.07936096191406
708,5.84915960014142,0.404003709554672,1.58775448799133,6.59228070572824,0.102298751473427,1.09049129486084
709,7.90590000904603,0.435960292816162,0.750217378139496,3.86591036201488,0.0959253311157227,0.672607779502869
710,3.8289064989526,0.459660947322845,4.18947839736938,-4.09585281647138,0.0892450362443924,5.04956150054932
711,-1.90623514137061,0.428903967142105,2.51292109489441,2.43589687949752,0.0963399410247803,1.80354630947113
712,3.29057258493362,0.465186655521393,2.94114589691162,1.7636432576833,0.0660729333758354,2.30295586585999
713,1.42793485152722,0.455939739942551,1.27595174312592,-1.4584315548441,0.0541622675955296,1.09303653240204
714,4.98455972063692,0.497714042663574,1.77323377132416,2.32999392796322,0.0553009547293186,1.3331071138382
715,-3.38212650278019,0.450655817985535,1.9355309009552,-5.21738927070194,0.0569838732481003,1.7130434513092
716,-2.16252535714997,0.47695118188858,0.704256355762482,0.795115872052808,0.0650472790002823,0.771224856376648
717,0.800349560343248,0.491501867771149,2.67265892028809,1.88195877243468,0.0658693537116051,2.01429319381714
718,1.78902222722156,0.530709028244019,2.2038676738739,19.9287599013424,0.229813873767853,1.96242272853851
719,1.02620028583664,0.528703391551971,1.08789610862732,-0.30162842548948,0.197844982147217,1.29437851905823
720,3.24918937866141,0.577821671962738,2.71075224876404,0.55231889949761,0.21278403699398,2.42124652862549
721,6.33108977121136,0.653100967407227,1.06200444698334,4.12968858670528,0.246301859617233,0.886048078536987
722,2.77159503067293,0.658389389514923,2.16694641113281,1.84954925187281,0.242524951696396,1.79473996162415
723,-0.244456854074011,0.648472487926483,2.16392731666565,-2.98406168344516,0.222436651587486,1.8244309425354
724,1.96432407987986,0.644916772842407,3.29842519760132,3.66810118290371,0.197886019945145,3.67738556861877
725,-1.14053566595163,0.640589416027069,2.74361133575439,3.06757261533631,0.224494501948357,2.42125582695007
726,1.3725827820712,0.651429772377014,1.65019917488098,4.78329769303194,0.294600009918213,1.51121139526367
727,4.28888267193088,0.70680844783783,1.66289639472961,2.48053769205717,0.295970469713211,1.68692600727081
728,4.60393162032892,0.73245096206665,2.46549940109253,2.68163569680961,0.315735638141632,2.07700181007385
729,-0.699917714047046,0.701097428798676,2.17269659042358,8.1333354620526,0.339350014925003,2.25517821311951
730,-2.9053212436103,0.674673795700073,1.22449123859406,4.59380309374203,0.360991239547729,1.07457518577576
731,5.28843532958783,0.781323671340942,1.1222939491272,5.06581441108581,0.451464951038361,1.25202131271362
732,-1.1274508111184,0.770538926124573,0.790157794952393,-2.63200293458615,0.435053259134293,0.602218747138977
733,4.39804539611565,0.769788146018982,1.69179821014404,3.93067136060055,0.426608324050903,1.47778248786926
734,4.53640913969414,0.814544320106506,2.69104623794556,3.9662932629949,0.490421742200851,2.51310300827026
735,3.41755780758688,0.84440666437149,1.45569229125977,3.82205817676251,0.526934623718262,1.38509774208069
736,2.35835360526108,0.856701254844666,1.55571961402893,2.88104095666027,0.517864525318146,1.36642968654633
737,-1.37979332100841,0.862102270126343,1.43547439575195,-11.4570132609943,0.430233359336853,1.28885269165039
738,-1.34247183732131,0.823310732841492,1.63755142688751,2.36360152441657,0.455471903085709,2.93641042709351
739,-0.758134701308588,0.809071123600006,5.81343698501587,2.29367486036415,0.48823955655098,3.74390721321106
740,1.31492224022475,0.80228853225708,1.00828969478607,-2.7873225446503,0.443058162927628,1.02549088001251
741,9.76063716727124,0.858083009719849,2.17952346801758,7.76670925685335,0.485144913196564,1.82739675045013
742,1.07331624311032,0.817896008491516,1.64564228057861,6.80535467202851,0.547940850257874,1.36895573139191
743,-0.0289976729667122,0.805677175521851,2.42636322975159,13.1127742300102,0.634860098361969,2.06955194473267
744,-1.77189836530544,0.785805284976959,1.77322387695312,-2.84712883052472,0.626358926296234,1.86856842041016
745,-0.899843486795002,0.83005952835083,2.54173183441162,-3.58873770961466,0.629550576210022,1.73884499073029
746,5.80359195797873,0.89536988735199,2.99563264846802,19.9287599013424,0.756638705730438,2.70305347442627
747,0.0283485522799294,0.899902880191803,2.04963731765747,-5.60943915861919,0.723447799682617,2.24303555488586
748,0.389078710786559,0.897629618644714,1.34112024307251,7.41999349171533,0.780299842357635,1.64831864833832
749,-1.06133095859015,0.874777436256409,1.95844995975494,-2.92810356960967,0.82702511548996,1.60577154159546
750,5.21961392571741,0.940710544586182,1.69806206226349,0.919128373532826,0.821644484996796,1.5124443769455
751,2.15747811040609,0.955250680446625,1.30921971797943,0.809539230241909,0.835294723510742,1.12936186790466
752,-13.6175953329462,0.847049474716187,1.57481706142426,-8.40079617102819,0.79358297586441,1.3568514585495
753,-11.4051126012487,0.810126900672913,1.11518359184265,1.51522364255536,0.809532642364502,1.29787158966064
754,-0.883078503923486,0.811237037181854,1.62634766101837,-3.31610245073334,0.804788589477539,1.44784867763519
755,4.0069148520697,0.843179166316986,2.32125473022461,1.69925404303812,0.773182451725006,2.15992951393127
756,2.67134951837944,0.834546327590942,1.8636440038681,0.956426084571491,0.806486666202545,1.51102340221405
757,2.34905830522008,0.883876860141754,1.77401006221771,5.35872935948175,0.837043106555939,1.68010747432709
758,22.4024441118688,0.937953054904938,2.04274702072144,7.84374106104611,0.926880061626434,1.74919331073761
759,1.33241577432831,0.924801111221313,3.02152848243713,1.27944152903496,0.942374467849731,2.56949305534363
760,7.37917316564771,1.01362299919128,1.98763692378998,9.6902264668004,1.05039751529694,1.62996304035187
761,-3.23485359459794,0.968117654323578,2.56167149543762,0.282266927365777,1.03465819358826,2.21637201309204
762,1.21108886590453,0.977386653423309,2.87210321426392,1.33974784356784,1.03803253173828,2.65840268135071
763,-0.172735166118742,0.981220066547394,1.3317973613739,-6.30991343883621,1.01091110706329,1.21632277965546
764,6.49180582727874,0.988429546356201,2.28456449508667,2.70980605028789,0.980188608169556,1.96150612831116
765,-2.32517983797565,0.986894130706787,1.12814009189606,-4.07871333253832,0.99817430973053,0.969623327255249
766,-2.45408028377066,1.00463449954987,1.71673226356506,-0.933296474344034,0.97907817363739,1.55606997013092
767,0.440890938380835,1.01602399349213,1.90578472614288,-2.16187715368937,0.942392587661743,1.83057129383087
768,0.0806212795526565,0.972151696681976,1.24052381515503,-1.64879192774148,0.926800012588501,1.1716068983078
769,2.86186680222787,1.00883662700653,2.09389138221741,-2.77104080416678,0.932384312152863,3.24683165550232
770,4.75606873164307,1.07002401351929,1.58240938186646,1.44740402342227,0.912450432777405,1.45413672924042
771,7.17044929225884,1.0908282995224,1.37374234199524,0.993173788786396,0.903522431850433,1.43951094150543
772,-1.43676075593854,1.09133362770081,2.02478504180908,3.24225150349953,0.920508921146393,2.08859276771545
773,0.021856786813774,1.04258000850677,2.88743352890015,5.46721027385204,0.930813610553741,2.76574468612671
774,-2.86376391983055,1.02301979064941,1.30104100704193,2.18211793270923,0.937064588069916,1.0718150138855
775,7.44283503794574,1.0576776266098,1.9102383852005,1.83043682580683,0.94872510433197,1.69555509090424
776,-0.223845551122863,1.07493185997009,1.37782073020935,2.20053674084901,0.930043816566467,1.45395052433014
777,17.4287599013424,1.20867455005646,3.12202405929565,1.24364492421873,0.954734265804291,2.74448537826538
778,-0.912676302630107,1.21532762050629,1.86776673793793,7.09142189432322,0.979292690753937,1.48742568492889
779,6.07141289230717,1.24667823314667,1.70682346820831,-2.1593618994692,0.964792191982269,1.36909735202789
780,-0.0693067017082484,1.22528159618378,1.5364089012146,0.925764440557103,0.946036756038666,1.55564141273499
781,2.3296060303217,1.23882818222046,2.49195528030396,0.625049962587214,0.983959257602692,2.15729689598083
782,-1.83048813554543,1.22715246677399,1.16106450557709,2.15850874904473,1.01546955108643,1.1460120677948
783,0.556492721235909,1.23919892311096,0.793866872787476,0.429845928117184,0.986133635044098,0.84846442937851
784,-0.349599509669158,1.27129006385803,8.024094581604,4.65556191989559,1.00176692008972,7.83466672897339
785,-3.22714655138701,1.26681280136108,2.73962163925171,2.11374584216506,1.00688004493713,2.26992964744568
786,-1.35387839199721,1.23074018955231,1.29247653484344,0.602423843010511,1.03002333641052,1.2013533115387
787,1.50490817349161,1.23104822635651,2.99867868423462,-0.634892350138329,1.00728225708008,2.20024132728577
788,-0.661181131680663,1.2144695520401,0.796960830688477,4.3224732858858,1.02758061885834,0.979526579380035
789,3.20449862691517,1.23614072799683,2.91107821464539,1.40330601881323,1.0285826921463,2.50931072235107
790,0.308778528072737,1.19296288490295,1.08449304103851,5.62961028749111,1.02426207065582,1.14288198947906
791,6.58464341500606,1.2090128660202,2.23903226852417,4.19066540791481,1.04845929145813,2.70810627937317
792,4.99423144731808,1.24955296516418,2.04068660736084,3.06101243473206,1.05709159374237,1.83746039867401
793,1.37712154692149,1.25357711315155,3.04979610443115,5.37203655051847,1.09333276748657,2.80847930908203
794,4.29766121538848,1.32032406330109,4.65513706207275,6.97273416677421,1.14232885837555,4.67054843902588
795,-0.366421652924362,1.29728472232819,2.13411998748779,2.68532483507541,1.18869054317474,1.94325435161591
796,14.2968532984855,1.39280939102173,2.90483808517456,0.258232253401257,1.18165051937103,2.39821338653564
797,-2.56091893276432,1.37345576286316,4.44308757781982,-0.18661853327665,1.17765927314758,4.12031030654907
798,-6.22702625979796,1.32954144477844,0.940969824790955,-0.555043730871658,1.19145858287811,0.210781186819077
799,2.3031126240235,1.36833357810974,1.95534682273865,2.47542392942255,1.21491158008575,1.77868616580963
800,0.0958530576730806,1.36373388767242,1.84893941879272,3.91210352028917,1.27955651283264,1.6732439994812
801,0.739978544203809,1.37597858905792,2.1012225151062,-4.67173941961983,1.23053395748138,1.60084462165833
802,5.14196932394232,1.38657975196838,2.84454607963562,-1.64260709017581,1.18990767002106,1.99696850776672
803,3.26149092744192,1.42648482322693,1.64817476272583,-7.78361492263425,1.14242470264435,1.29314494132996
804,1.7468993171054,1.40621995925903,1.99409639835358,-10.1047920544284,1.11722779273987,1.12011158466339
805,5.27946762148861,1.45033478736877,1.408531665802,5.55731561017372,1.13021731376648,1.20246338844299
806,4.26360532993999,1.43811535835266,2.06770825386047,4.34862800546714,1.12936544418335,1.73965787887573
807,0.656439003142959,1.43761777877808,3.19538545608521,9.20923919127507,1.17766892910004,5.20427083969116
808,-1.6164124269053,1.41274213790894,2.14291000366211,-0.421787068501743,1.16408574581146,1.89979553222656
809,3.69397855193935,1.44418978691101,2.16256380081177,3.83400462315039,1.2164511680603,1.70848202705383
810,0.966052348338345,1.47324013710022,1.88815307617188,-1.37451971801479,1.22637617588043,1.38339412212372
811,0.121769164425412,1.48007869720459,1.96811306476593,-1.08294671665684,1.26428461074829,1.59594213962555
812,0.785728852711207,1.46925675868988,2.23086762428284,-1.81021416991774,1.25234806537628,1.53944385051727
813,2.92038488650006,1.47707056999207,2.20337748527527,0.952561402855698,1.25053071975708,1.78604507446289
814,7.42913961909403,1.5055171251297,2.62455034255981,2.55141467166059,1.24754118919373,2.4213981628418
815,1.2857080316236,1.57379603385925,2.59616041183472,19.9287599013424,1.44302666187286,2.16324925422668
816,5.10790234466017,1.59149134159088,1.81460964679718,-3.00753504211242,1.41077709197998,2.0028760433197
817,-1.16808485590634,1.58697485923767,2.00381922721863,-0.300566778301032,1.40649914741516,2.22431063652039
818,0.0184870611797266,1.63352704048157,2.61528134346008,7.36479432199936,1.43325293064117,2.20789217948914
819,4.60863343076249,1.67347264289856,2.70909309387207,3.5895850172676,1.4664261341095,3.107661485672
820,2.65330601881323,1.67716920375824,2.82443737983704,4.45750530148704,1.51592290401459,2.53931260108948
821,5.68343258269271,1.70607197284698,1.99879610538483,-3.2017594619382,1.47898054122925,2.20657777786255
822,1.49794814013568,1.65851175785065,3.04048562049866,3.09954925187281,1.49032890796661,2.54770421981812
823,-3.06795740168659,1.57852149009705,1.76467025279999,0.646201868799704,1.47577357292175,1.56242156028748
824,0.36441729434164,1.57243084907532,2.23476529121399,0.187685101471455,1.44994461536407,1.63557815551758
825,19.9287599013424,1.69991397857666,2.62588620185852,0.086844877317265,1.44214153289795,2.14328813552856
826,7.65982686121313,1.71227920055389,4.01387071609497,18.1702710200045,1.54762446880341,5.17013645172119
827,4.53996764667634,1.70671689510345,2.18770146369934,3.86835779233292,1.56680405139923,1.69447588920593
828,17.4287599013424,1.85363709926605,3.43380069732666,1.51510781796593,1.55795812606812,3.03023791313171
829,1.39086567570936,1.91116714477539,2.06100535392761,5.74507435866441,1.5899703502655,1.71414923667908
830,7.24923968829798,1.94394588470459,4.46086406707764,3.93914094105886,1.64355337619781,5.2189359664917
831,3.51075510197812,1.94710302352905,1.8343460559845,1.5437133383698,1.68381929397583,1.45662188529968
832,8.63197714028395,2.01476764678955,2.90542268753052,4.53653573111188,1.70096015930176,2.23619270324707
833,5.71138060367073,2.02031779289246,2.82380700111389,3.70570679384023,1.70461046695709,1.48268818855286
834,2.6114286247812,1.98819828033447,2.44857692718506,-2.73792905260516,1.66758871078491,2.58263063430786
835,7.7912307866058,2.02013540267944,2.23311901092529,2.19820506413813,1.68860125541687,1.96785140037537
836,2.48322439393523,2.03011202812195,1.95085406303406,6.09788925108066,1.73319375514984,1.67145204544067
837,-1.13718056862453,2.05878853797913,2.02358651161194,-3.3375190133831,1.7222306728363,1.49439251422882
838,-3.91538875177119,2.01916027069092,1.8259528875351,2.56433756547249,1.74956464767456,1.63009893894196
839,6.56932534668281,2.08125495910645,1.72111856937408,0.944349471811774,1.76571333408356,1.60414016246796
840,5.8862732858618,2.11920785903931,1.58135497570038,2.84620101868282,1.76075887680054,1.37620675563812
841,-0.36366478668458,2.09147095680237,1.83746898174286,5.46583225522608,1.78198969364166,1.64728653430939
842,4.77402167256923,2.10612607002258,2.02179789543152,4.92760831374578,1.80008566379547,1.76321065425873
843,-5.23443848512405,2.06184864044189,2.48513889312744,-1.21692226349751,1.81178259849548,2.30131983757019
844,6.18015636165525,2.0788676738739,1.50414049625397,-2.34528103235195,1.78719687461853,1.54682290554047
845,0.426206290184489,2.09789133071899,2.16263294219971,1.50304019665501,1.81802403926849,2.17837977409363
846,0.927866952503307,2.13597869873047,2.00542974472046,7.44794814013568,1.82165813446045,1.92477178573608
847,5.32645566545943,2.12844347953796,1.9890102148056,-3.29088662322639,1.77332806587219,1.8736207485199
848,6.78037081821508,2.16848206520081,1.60998749732971,-2.97804561543887,1.7566739320755,0.248071119189262
849,4.44897311489233,2.15786600112915,2.49243092536926,2.77203135673078,1.81131100654602,1.50030279159546
850,0.994821845346117,2.17691111564636,2.92276382446289,0.961514918807777,1.88276326656342,1.87828397750854
851,1.42174895605721,2.18593525886536,1.50166082382202,5.20809346491892,1.9287805557251,0.6985964179039
852,2.87005719300829,2.19944047927856,3.02698278427124,14.2968532984855,2.02612233161926,2.47668886184692
853,5.9519048545515,2.26290225982666,2.35284757614136,-2.48233627011507,2.01726698875427,1.99224936962128
854,4.65353228777002,2.32388114929199,1.58872926235199,3.63750279036359,2.04175972938538,1.82619619369507
855,6.72681470555215,2.38895463943481,6.13762187957764,2.75086212540331,2.05583214759827,5.64747095108032
856,1.93229897971766,2.39552545547485,1.73199343681335,3.17047224546805,2.05481171607971,1.63484156131744
857,0.216455593952367,2.37976264953613,1.6281635761261,2.42516015922453,2.07991337776184,1.4318710565567
858,3.33311276774812,2.36298894882202,2.14410829544067,-0.129889336274556,2.03509879112244,1.11311221122742
859,-2.27619925861234,2.29510831832886,2.62950921058655,2.51479832235549,2.02609181404114,2.49287247657776
860,7.91552684184651,2.32235240936279,2.24456477165222,4.08029395728467,2.08059906959534,1.67233872413635
861,-3.83744358027083,2.30947756767273,2.02708172798157,-3.12808747744428,2.04350590705872,1.76255333423615
862,-1.71035778726397,2.2761378288269,2.37579655647278,1.52355712103387,2.04190540313721,2.91012859344482
863,5.92993464616865,2.30615139007568,4.13105392456055,6.58359867556812,2.09551882743835,4.63660860061646
864,8.94503877866615,2.33255481719971,4.67997789382935,24.5130794279697,2.24340605735779,5.42788076400757
865,3.82780195981151,2.38062071800232,1.7310950756073,-0.35698434082706,2.27580881118774,1.98961913585663
866,2.35239963764666,2.41072010993958,3.2885537147522,19.9287599013424,2.40336680412292,3.22977828979492
867,6.24364656640261,2.44700884819031,2.200514793396,5.22259450849385,2.42563772201538,2.22974038124084
868,2.77776624173743,2.45360040664673,2.02296280860901,-0.122360618835786,2.29196333885193,1.81767761707306
869,5.06065944127188,2.48049688339233,1.25264990329742,-2.89289068215109,2.27468824386597,1.21570563316345
870,1.09955938347979,2.4661660194397,3.61157464981079,3.05383918592782,2.29136514663696,3.0832850933075
871,0.833453508926485,2.42951512336731,3.21156644821167,1.83699219272424,2.27608036994934,2.45823335647583
872,6.01879922478608,2.45116305351257,2.68020701408386,6.21384073358238,2.30517554283142,2.05791997909546
873,5.32449052375841,2.48828935623169,3.31158447265625,4.88379027992828,2.35762786865234,2.82876348495483
874,8.91046130671793,2.53459692001343,4.50485420227051,4.66789330491691,2.36429309844971,5.29201173782349
875,-4.52501368727432,2.51203370094299,2.0657651424408,-1.51277875986785,2.33375763893127,1.81207072734833
876,8.15022803676301,2.55721807479858,4.1994743347168,7.01560363412212,2.34863972663879,4.51074457168579
877,2.38104373874855,2.54449915885925,2.58921194076538,3.73964007233103,2.35703372955322,2.05068373680115
878,1.23863639945208,2.52206373214722,2.86564373970032,2.79062038224977,2.35776019096375,2.51708006858826
879,6.11479432199936,2.56749534606934,3.49187612533569,4.36071925203894,2.33260941505432,2.96486330032349
880,5.45297959692665,2.62321734428406,1.94556415081024,-1.00780201298969,2.29526543617249,1.5595908164978
881,1.37243875946237,2.59711050987244,2.98946833610535,5.26808485223583,2.29661393165588,2.50051784515381
882,-1.06670837051521,2.59751534461975,2.39912343025208,1.73279661881468,2.32571244239807,1.82051122188568
883,2.05844635660237,2.58191823959351,3.97680711746216,3.03117754813324,2.31971597671509,4.42950105667114
884,-1.09190651625902,2.54439616203308,2.25080275535583,1.34807152956833,2.30226111412048,2.06269145011902
885,4.34308517962015,2.55056643486023,3.61639833450317,-0.919015960294902,2.27065396308899,3.09151482582092
886,4.86815511434704,2.567298412323,3.24117350578308,22.9502910018209,2.40444898605347,2.57051157951355
887,3.28640913969414,2.59840631484985,2.80308985710144,6.27071629150715,2.52263379096985,2.56038022041321
888,3.06353571402056,2.62777996063232,2.37189483642578,3.79765516042401,2.53219437599182,2.11964726448059
889,2.42540344545429,2.64900350570679,1.64128184318542,3.66298548365872,2.54132294654846,1.49571323394775
890,-5.12054205893025,2.60610032081604,2.18746280670166,0.348509302266264,2.56222867965698,1.63037550449371
891,6.05459255740225,2.58139324188232,2.150390625,7.71671055011095,2.5618953704834,1.87253034114838
892,3.42655681049804,2.59708166122437,2.53243064880371,7.31819536658246,2.56531405448914,2.13439464569092
893,-1.73374639316878,2.58571648597717,5.08588027954102,2.3008591581297,2.49323463439941,5.24891185760498
894,-4.26933306670296,2.56906700134277,2.48803901672363,0.785140511653839,2.51744985580444,2.44330477714539
895,-1.88098523028104,2.56252598762512,4.93791437149048,7.08386480476652,2.58860039710999,6.00506353378296
896,-0.0221626332955099,2.52368783950806,2.34445452690125,2.91452458219045,2.47517204284668,2.7454628944397
897,4.71210640777066,2.55491280555725,3.55189561843872,-0.332968498080639,2.51034879684448,2.76267981529236
898,1.3082992504598,2.5610408782959,1.65979909896851,4.64308115692845,2.49183583259583,1.7498232126236
899,4.21160462307642,2.59619379043579,2.27499723434448,0.366410266042248,2.51379919052124,2.0261549949646
900,6.47746326316102,2.60457921028137,3.63228535652161,3.09954925187281,2.52833533287048,3.17986011505127
901,4.63653656831875,2.62110638618469,7.41714000701904,-0.838741133699049,2.51734709739685,7.65682697296143
902,11.2235987581309,2.78671431541443,3.6044237613678,3.04314358035023,2.59363961219788,3.00557398796082
903,1.7819735801841,2.87462854385376,3.47291254997253,8.63197714028395,2.64108490943909,3.21923089027405
904,2.78295186430672,2.89906859397888,2.98766088485718,4.64017887614662,2.69412684440613,4.28110837936401
905,18.6787599013424,2.99688076972961,3.67109870910645,7.36479432199936,2.73189687728882,3.17721223831177
906,4.45750530148704,3.00878858566284,3.62833547592163,2.6910121079108,2.74346089363098,3.01301550865173
907,3.94896276164977,3.01945471763611,1.47360873222351,-2.75396893270448,2.68937611579895,1.10874915122986
908,-11.5027280664882,2.79342031478882,1.91561448574066,4.43085550001676,2.66662359237671,1.97766709327698
909,6.27071629150715,2.82634234428406,3.53465342521667,18.6787599013424,2.78261923789978,2.99162077903748
910,7.92899277414762,2.83000779151917,1.60635602474213,2.27221376473905,2.7331657409668,2.1533944606781
911,4.44314415588968,2.88119435310364,1.85393571853638,1.19066680038007,2.73922157287598,2.3086051940918
912,1.62836950855093,2.88397622108459,1.97805631160736,7.1780209560757,2.77814340591431,1.90301465988159
913,6.74370398547275,2.9300856590271,2.29138517379761,-0.0736925845264643,2.81971836090088,2.23156976699829
914,5.56537715451747,2.92390966415405,2.07919716835022,3.22626374392838,2.82316136360168,1.97367918491364
915,7.38197714028395,2.98862409591675,3.16183543205261,7.11047202408986,2.89775586128235,2.71290421485901
916,7.11047202408986,3.05238771438599,2.98419547080994,2.75124489897741,2.92231965065002,2.70542573928833
917,2.51387957923951,3.06620764732361,1.91758728027344,0.466705593584225,2.93984341621399,1.87867665290833
918,0.459438701214111,3.06873297691345,3.69877314567566,2.45267260347639,2.96718668937683,2.89976143836975
919,5.91739038486751,3.08910322189331,2.15219473838806,9.00670462906308,3.04570484161377,2.12480616569519
920,-0.154694079083766,3.05636477470398,1.99785935878754,2.93169061539569,3.0556001663208,2.06762313842773
921,6.4965634632373,3.05187225341797,5.65360307693481,6.74131326105491,3.09392094612122,6.22092342376709
922,5.50564502048173,3.09815502166748,1.94550597667694,7.2824402501645,3.12085580825806,1.82185935974121
923,3.83224859913851,3.12355756759644,2.94857788085938,4.9196654958935,3.11720538139343,2.51805400848389
924,5.14782740720293,3.17696809768677,1.96568512916565,4.84805326299411,3.13497829437256,2.81227231025696
925,2.27705698941299,3.14252972602844,2.91611313819885,-2.03903306479946,3.10918188095093,2.85097360610962
926,2.17130809146495,3.15849733352661,2.63472962379456,7.41055199571858,3.14391541481018,2.08939671516418
927,4.36071925203894,3.07137703895569,3.08703899383545,-1.98852388685591,3.12236762046814,2.22516894340515
928,6.22598613782336,3.11896824836731,2.43153214454651,-0.234557139681136,3.07352757453918,2.48489665985107
929,4.21519038366371,3.10659337043762,2.78482556343079,-0.552466829209421,3.08424019813538,3.30248808860779
930,-6.65513868704988,3.06268787384033,2.08054780960083,12.531950849268,3.16161489486694,2.04734873771667
931,6.04571073595151,3.0874617099762,2.39576554298401,5.05622872041403,3.19115591049194,2.46953964233398
932,-0.309771176617504,3.09759998321533,2.66290545463562,4.16605270911785,3.20453977584839,2.84725522994995
933,6.31208617851554,3.13597059249878,3.09791421890259,5.43113810100914,3.23788166046143,2.87683033943176
934,-1.07399439014013,3.1311411857605,2.17672944068909,-5.70015645688823,3.16884350776672,2.15370678901672
935,-0.503513755099075,3.14929866790771,3.4121310710907,1.80295741031803,3.16677165031433,3.23895692825317
936,-0.674445583115617,3.15382814407349,2.27958559989929,-0.356803081200055,3.16037654876709,2.38474082946777
937,2.60803700704747,3.16118240356445,2.07179713249207,7.53875269523774,3.21486759185791,1.96848726272583
938,4.08816640900983,3.19284510612488,3.72316312789917,19.9287599013424,3.31890940666199,3.49027967453003
939,-1.78254172217928,3.15959811210632,2.44914674758911,4.75358440247266,3.3412446975708,2.51970481872559
940,3.28222476553161,3.17942118644714,2.4095196723938,4.94103737546877,3.33665418624878,2.57622075080872
941,7.49563297479935,3.18549418449402,2.29042840003967,3.2738296048569,3.33054208755493,1.91516304016113
942,4.92507032629304,3.18503308296204,1.63241684436798,6.18639108012462,3.3513777256012,1.60291612148285
943,-0.297795176777513,3.17386722564697,2.75827789306641,4.15910158476566,3.34329152107239,2.95611310005188
944,0.179842107744673,3.14641499519348,3.68028736114502,6.27071629150715,3.3386116027832,3.28467869758606
945,1.29660936286482,3.15750193595886,1.6882780790329,10.4849815582569,3.39060950279236,1.64811766147614
946,-3.05642450927667,3.04181337356567,1.91208183765411,3.29268058552319,3.41083908081055,1.93345212936401
947,6.89932520631522,3.10488152503967,2.47868156433105,6.27366100482773,3.45390748977661,1.92477226257324
948,1.60215519718162,3.15707612037659,1.85263073444366,4.73559001903636,3.48917841911316,1.87678408622742
949,3.96205697040289,3.16813588142395,2.1641149520874,7.70146068461513,3.52401852607727,2.08346581459045
950,3.89529239864759,3.1934654712677,1.68184792995453,4.50126226714939,3.52794647216797,1.51627445220947
951,8.56189617193301,3.24561166763306,2.39336109161377,6.04187309948154,3.59937047958374,1.91306626796722
952,9.1757522481107,3.27250337600708,5.73239898681641,8.82594631610639,3.66916060447693,5.92515802383423
953,-0.146540918277897,3.2497832775116,2.42579865455627,2.97798850312542,3.74090456962585,2.23417258262634
954,5.88859261819912,3.27739429473877,5.41805553436279,8.36650456133329,3.86404657363892,5.05622816085815
955,-4.37819336092729,3.21301007270813,2.4240574836731,-0.165919459119275,3.82589149475098,2.23447561264038
956,4.26039992200055,3.21298861503601,4.53121662139893,24.5130794279697,3.9603214263916,6.54491996765137
957,0.733630650305949,3.21350312232971,2.62296104431152,7.28971435392424,3.94752430915833,2.90186500549316
958,10.5405762395812,3.29454970359802,6.56573104858398,1.9604844184725,3.96340656280518,5.02289199829102
959,1.69529379637467,3.28122520446777,2.26359462738037,-1.90372738219342,3.9251549243927,1.79808080196381
960,1.22229812212662,3.28293323516846,2.53010082244873,4.21164361447583,3.96239614486694,2.43436622619629
961,0.559830928229237,3.28585410118103,2.28143501281738,0.222789631088181,3.97110104560852,2.31940817832947
962,4.24237699709587,3.30889821052551,2.6544361114502,0.238416124184355,3.9847583770752,2.41198182106018
963,6.16642402789057,3.33053827285767,2.7704963684082,4.44793837725101,4.00806093215942,2.01536130905151
964,6.23135846650886,3.32255339622498,2.46516156196594,9.05651520247714,4.05142831802368,2.39892554283142
965,2.27756456368731,3.32916593551636,2.66315031051636,3.26130501376269,3.94031167030334,2.48059248924255
966,6.94828243423084,3.34143471717834,2.51707029342651,-2.50815163049748,3.94364094734192,2.26532649993896
967,-18.9766622787931,3.22271084785461,2.84576082229614,16.1787599013424,4.05350351333618,3.49278855323792
968,-2.96202104366928,3.20284080505371,2.57667565345764,0.729081600328398,4.00926494598389,2.40468525886536
969,5.92148905418718,3.21159315109253,2.51013469696045,7.23906472587589,4.0335955619812,2.50534677505493
970,2.42248969289994,3.21005463600159,2.47564029693604,2.1907579983095,4.01848411560059,2.16227436065674
971,-0.147272403147547,3.17118334770203,2.29772925376892,-9.63860845279163,3.97557139396667,1.45379304885864
972,3.45455884061657,3.18422722816467,2.78514409065247,-11.9023369609144,3.87555861473083,2.36497378349304
973,1.56199626113864,3.2150936126709,2.63660168647766,-1.44675362998002,3.86160564422607,1.32387340068817
974,-2.44294772707757,3.19637775421143,2.36051678657532,4.9324712524121,3.89323735237122,2.15822672843933
975,5.56844814913373,3.10064244270325,2.07288146018982,0.417167662585605,3.8954393863678,2.1036958694458
976,3.14475862945806,3.07054209709167,2.5953962802887,-0.849436739276638,3.76864171028137,2.1155903339386
977,8.65487372253967,3.09797477722168,5.37532138824463,5.60238493238623,3.78020191192627,4.40783214569092
978,-0.646210932825025,2.97747468948364,1.02902746200562,-2.18207753342563,3.75555419921875,1.40335547924042
979,5.96662525755661,3.00797986984253,3.01373100280762,4.43956299177301,3.74685049057007,3.35684490203857
980,4.00519273296917,2.98635292053223,4.67950201034546,5.57883993149644,3.75778198242188,4.55881881713867
981,4.89379922478608,2.99557328224182,4.63299942016602,8.84844049301664,3.80648040771484,4.01396179199219
982,6.59150342252054,2.98197031021118,2.12040567398071,0.343434745018735,3.77852630615234,2.05768465995789
983,0.845962314137613,2.94953417778015,2.76792931556702,2.67165478936735,3.77163243293762,2.67945528030396
984,0.53885728335655,2.9357168674469,1.63545846939087,3.94069542888854,3.8161563873291,1.71970188617706
985,-3.73847454611581,2.85885214805603,3.21598100662231,11.2235987581309,3.8763256072998,3.00366926193237
986,-2.4171439243441,2.8261833190918,2.745281457901,3.97589886862023,3.86217927932739,2.72993612289429
987,1.91515585864303,2.84653210639954,2.68806290626526,3.27375219222552,3.906254529953,2.67313241958618
988,-2.60600869484079,2.85526132583618,3.21865797042847,24.6665647793912,4.05360269546509,4.05534839630127
989,-0.223304464315404,2.80997681617737,2.47749853134155,4.11564686701827,4.0747447013855,2.77373790740967
990,5.7626196719071,2.80915236473083,2.40650582313538,2.18852707722953,4.07036018371582,2.40750527381897
991,3.21423891464823,2.83300542831421,2.95704889297485,5.06820559001129,4.06770896911621,2.53247880935669
992,2.72922057826741,2.81937336921692,2.64789605140686,3.98821475670633,4.06144714355469,2.32337164878845
993,-2.56770713482185,2.83715176582336,3.03689289093018,1.52969863758952,4.07975769042969,2.17480897903442
994,3.69363264997797,2.82057499885559,2.71938633918762,4.01167506046,4.12213706970215,2.48421692848206
995,8.34777836324721,2.87338542938232,2.888179063797,6.44119798582711,4.15505838394165,2.38287687301636
996,2.58690101692378,2.88444566726685,3.72451829910278,6.27071629150715,4.14721012115479,3.59774422645569
997,9.57761583085524,2.91278672218323,2.91438317298889,16.1522479142207,4.27683115005493,2.45659303665161
998,-6.00743179687192,2.82753467559814,2.44514632225037,1.25393881213758,4.30504417419434,2.48749661445618
999,20.0241260257582,2.93136882781982,4.7758412361145,8.13655243103051,4.34080791473389,4.52093029022217
1000,5.42319601807146,2.96089124679565,2.65561318397522,7.55220210101044,4.3847451210022,2.16689729690552
1001,4.06552381182439,2.97851634025574,3.38867616653442,18.6787599013424,4.47454977035522,3.16595053672791
1002,1.13534440282606,2.96695184707642,2.97564911842346,5.25933931570358,4.41429948806763,3.22548484802246
1003,7.76670925685335,2.9790506362915,3.5625114440918,4.85362432183324,4.46320629119873,3.60951733589172
1004,4.02717251195689,2.97487497329712,4.34384393692017,-1.68408478169061,4.42772912979126,4.0248122215271
1005,-0.316598545378596,2.92791843414307,3.00893902778625,-1.87497423637052,4.39689016342163,2.24625086784363
1006,8.7652046730914,2.97347140312195,4.39920711517334,4.67626870697146,4.40692853927612,4.58483552932739
1007,2.80202230259305,2.99070858955383,1.85842871665955,7.21781894371053,4.43887996673584,2.13108134269714
1008,19.9287599013424,3.10134625434875,3.27399754524231,7.11047202408986,4.48714876174927,2.95867156982422
1009,24.3369877494437,3.27876758575439,4.89045810699463,13.4188650153725,4.55984258651733,5.81881761550903
1010,-6.38442009079245,3.18343448638916,2.7207293510437,5.90477618316084,4.57200622558594,2.27702808380127
1011,1.77628163883517,3.22085928916931,3.08627390861511,3.93954371450548,4.6191234588623,2.86907839775085
1012,-0.654387967398019,3.22789907455444,3.02883672714233,3.46904400716225,4.63209295272827,2.08356714248657
1013,5.89836067071892,3.2276885509491,3.2312650680542,3.11071925203894,4.60894060134888,2.89184832572937
1014,0.156670216061307,3.1690993309021,2.21175098419189,0.0176912865582887,4.44563817977905,2.22943210601807
1015,5.80286503775246,3.18226647377014,1.5677969455719,10.1008652174201,4.51535749435425,2.38034129142761
1016,6.12621892907704,3.20742535591125,2.745356798172,4.79690737275973,4.41447782516479,2.64139628410339
1017,5.14266918576169,3.20008540153503,5.102952003479,8.74119196408476,4.43793535232544,5.208580493927
1018,18.6787599013424,3.30609202384949,3.82771301269531,3.05383918592781,4.45911026000977,3.54059529304504
1019,2.63360875962849,3.28991174697876,3.47544932365417,3.66211995792466,4.50281047821045,3.04439163208008
1020,4.08633756375033,3.30982351303101,2.93226194381714,1.13556350127171,4.4900221824646,2.52019429206848
1021,23.205257597195,3.45896887779236,4.04548358917236,10.233489234769,4.54599857330322,3.98917198181152
1022,5.03135330771511,3.45238614082336,3.54215526580811,2.57446542716474,4.52173566818237,2.08998274803162
1023,3.10614273270231,3.43759679794312,3.32705497741699,3.79340006197177,4.51446676254272,3.1770646572113
1024,-1.31247810132051,3.36944389343262,1.74489986896515,3.65916501368485,4.50774192810059,1.91303932666779
1025,3.59454428623595,3.42357468605042,3.29982447624207,6.03443913028381,4.55805683135986,3.1210150718689
1026,7.80003033994856,3.42123985290527,2.45524525642395,10.321109678841,4.58009338378906,2.08646750450134
1027,5.31333546014116,3.44078850746155,3.09548664093018,4.08408355400579,4.58238983154297,2.78395485877991
1028,18.6787599013424,3.55705571174622,3.69476127624512,1.24306550244103,4.57207298278809,3.28203678131104
1029,4.58660662894456,3.54686760902405,3.47231125831604,6.65929711054251,4.5873966217041,2.72335577011108
1030,2.54856526092891,3.52750492095947,1.89720153808594,3.44150143824507,4.61705827713013,1.69609665870667
1031,8.37626581182598,3.57419753074646,2.07033133506775,8.37626581182598,4.637779712677,1.17060494422913
1032,-0.00986633768654954,3.58124303817749,2.54849147796631,6.10297393343894,4.66691398620605,2.48092198371887
1033,4.70782387339991,3.59890532493591,2.74776411056519,1.33681731770963,4.65561866760254,2.51392698287964
1034,3.23338121496452,3.62774085998535,3.85322666168213,3.86062821953676,4.6723690032959,3.62035799026489
1035,6.08110114509232,3.63932776451111,2.3466522693634,5.22413633684975,4.71332263946533,1.95926094055176
1036,0.300886698138598,3.60887932777405,2.85638451576233,2.24108958856634,4.57526159286499,2.68231701850891
1037,1.02469297534593,3.59380125999451,2.69760084152222,6.81487345812977,4.5788893699646,2.49738240242004
1038,4.37620984310055,3.60255241394043,2.81062746047974,7.46092199756773,4.60331153869629,2.31673002243042
1039,15.5468532984855,3.69002890586853,3.86928796768188,-0.0622308485405799,4.5784764289856,3.83844709396362
1040,-2.30493041002414,3.7087996006012,2.83829832077026,3.75728790445734,4.6012020111084,2.28200650215149
1041,-2.40701257191382,3.65238881111145,3.00052332878113,6.03758014652082,4.59000825881958,2.46168899536133
1042,7.11047202408986,3.6769483089447,3.80964231491089,4.64836067071892,4.57220888137817,3.6870379447937
1043,6.56014033224782,3.73224091529846,3.51494336128235,-2.27394905673437,4.54170989990234,3.16188883781433
1044,6.22427847771967,3.8021981716156,3.07344651222229,12.0382403573318,4.61673069000244,2.9644193649292
1045,19.9287599013424,3.94759654998779,3.64723587036133,2.82098359072524,4.58831119537354,3.372318983078
1046,11.6929799543981,4.02569723129272,2.79297947883606,4.69968408999016,4.60021257400513,2.54398322105408
1047,1.30052499032985,4.00295305252075,3.65211653709412,4.39709527863287,4.63174629211426,3.09059000015259
1048,5.98281102723015,4.03411674499512,3.56222367286682,6.15669210901567,4.64183712005615,3.0713963508606
1049,0.426206290184489,4.00888061523438,3.06023073196411,3.13593510004629,4.66030073165894,2.97223162651062
1050,2.77499417756649,3.98419761657715,2.71088099479675,-9.51125957279598,4.57622861862183,2.41022419929504
1051,1.32876001489227,3.96214556694031,2.03971099853516,-0.319294073479575,4.5796914100647,2.04186153411865
1052,-0.211985946197442,3.88590860366821,2.63224959373474,5.92639537249914,4.59891319274902,3.51223850250244
1053,1.84533318180606,3.88633108139038,2.84937262535095,7.48481526265953,4.59126567840576,2.68753480911255
1054,11.2235987581309,3.94260215759277,3.80060458183289,19.9287599013424,4.69318914413452,3.85915303230286
1055,-0.45327132202182,3.81505537033081,1.93476569652557,-0.728456368420639,4.63923406600952,1.89480900764465
1056,7.36493222172385,3.83443808555603,3.02007651329041,6.63127982131558,4.66550302505493,2.95786571502686
1057,-2.23884118768729,3.79318594932556,1.62979829311371,2.91552650445381,4.7032995223999,1.70994246006012
1058,6.03095094703121,3.91007733345032,3.12553882598877,4.46459968237429,4.70352458953857,3.03512668609619
1059,6.73780858291929,3.9131908416748,3.4452805519104,8.76867858825474,4.63745737075806,3.08661127090454
1060,0.554941044310258,3.8640308380127,2.34141659736633,5.22319479589421,4.6571307182312,2.35378336906433
1061,8.54248262181908,3.89135956764221,3.00223183631897,3.78245730002771,4.67440891265869,3.34823274612427
1062,1.12936711313827,3.88803315162659,2.88445997238159,24.4181216034701,4.78934288024902,2.55455446243286
1063,9.20414675349821,3.9044361114502,2.13921570777893,2.71773903111813,4.80795240402222,1.4132479429245
1064,6.21044423948715,3.90873622894287,3.30692863464355,10.711780350202,4.85785579681396,3.69882202148438
1065,5.83831450473999,3.89844512939453,2.63014197349548,7.52449301841759,4.8606162071228,2.7199809551239
1066,2.7902320303921,3.86964344978333,3.97231459617615,6.62203655051847,4.88642120361328,3.6921660900116
1067,3.59454428623595,3.8768482208252,3.49509167671204,-6.17646051437057,4.84213352203369,2.53900742530823
1068,3.38742890761306,3.8963680267334,2.14709162712097,13.1983753374998,4.91377067565918,1.83061504364014
1069,18.6787599013424,3.98144364356995,3.66932344436646,5.89836067071892,4.89304876327515,3.35114121437073
1070,5.85820799775172,4.02153015136719,3.61639595031738,6.11412948494745,4.91426515579224,2.33699512481689
1071,3.41762436574802,4.00100326538086,3.20678305625916,3.74738285208719,4.89430570602417,2.35837769508362
1072,6.05950879425497,4.00469541549683,3.47813010215759,5.63612320052864,4.88333034515381,3.69588136672974
1073,-2.48183589637608,3.96260213851929,2.58172535896301,-4.89080308295995,4.81792736053467,2.52338314056396
1074,7.3169898921543,3.97706294059753,3.09828066825867,9.01223264228058,4.8456883430481,2.92041826248169
1075,20.0241260257582,4.09537696838379,5.37446975708008,7.57295308915273,4.90976858139038,5.86293697357178
1076,4.01282264671979,4.10765361785889,4.60956335067749,-4.5975271260699,4.82971477508545,4.83258581161499
1077,5.4299412622852,4.11478185653687,2.27414536476135,8.74657018477917,4.90128183364868,2.0419807434082
1078,-3.94264247501184,4.04699087142944,1.51836931705475,5.92694798200695,4.94235849380493,1.51727867126465
1079,0.7451973193397,4.02385759353638,2.91517066955566,5.66027390298732,4.98377704620361,2.88994669914246
1080,7.76670925685335,4.12000322341919,3.69067239761353,2.65330601881323,4.91791868209839,3.48994302749634
1081,3.74527961683994,4.10466718673706,2.84673953056335,0.256060669751406,4.88591814041138,2.76577353477478
1082,6.75519411704103,4.15176677703857,3.28033256530762,3.61563487436136,4.88224840164185,2.88442254066467
1083,8.47979246995254,4.16621828079224,5.65977382659912,10.7102767310676,4.9174427986145,6.2947793006897
1084,4.89779084063887,4.20603036880493,2.86846566200256,3.70641361828368,4.98015356063843,2.74632573127747
1085,5.75885689148794,4.24777936935425,3.40886449813843,7.03303860906945,5.0150203704834,2.44843482971191
1086,-2.05746231641289,4.23855972290039,2.58451581001282,0.75922802868861,5.02246046066284,3.04024815559387
1087,1.21453736346874,4.22926902770996,3.16649603843689,4.98709822905362,5.0054497718811,2.90572786331177
1088,3.06751446750985,4.22246503829956,2.59850192070007,0.657597795710495,4.87697553634644,2.34018754959106
1089,5.08165901987187,4.268226146698,2.97399020195007,-0.825664041536244,4.83978033065796,2.10877346992493
1090,5.71570886945881,4.28444910049438,2.88570094108582,4.61762725419719,4.83762454986572,2.32948184013367
1091,17.4287599013424,4.350670337677,4.05699348449707,19.9287599013424,4.94865703582764,3.74517154693604
1092,7.81823816561047,4.369957447052,3.74214911460876,2.37785912845043,4.92326688766479,4.53301668167114
1093,3.36438564674371,4.39437246322632,3.50540471076965,8.99163585710012,4.95548391342163,5.50702381134033
1094,3.91979069188599,4.41930532455444,3.02990221977234,5.78631451822996,4.95225477218628,2.63678646087646
1095,4.15596743671296,4.43836784362793,3.42949223518372,24.6521326824075,5.04670238494873,3.13492918014526
