EpisodeIndex,DQNEpisodeReward,DQNAverageReward,DQNEpisodeQ0,DDQNEpisodeReward,DDQNAverageReward,DDQNEpisodeQ0
1,-11.7835051546392,-11.7835054397583,0.471048891544342,-20.2448453608247,-20.2448444366455,0.471048891544342
2,-18.2903225806452,-15.0369148254395,0.208977416157722,-19.7903225806452,-20.0175838470459,0.0321962796151638
3,-18,-16.0246105194092,1.05710923671722,-18,-19.3450565338135,0.62317955493927
4,-8.46129032258064,-14.1337795257568,0.818479657173157,-16.7677419354839,-18.7007274627686,0.673646986484528
5,-12,-13.7070236206055,1.01941323280334,-8,-16.5605812072754,0.652337193489075
6,-19.4627249357326,-15.2428684234619,1.04020047187805,-22.5398457583548,-17.0195827484131,0.887580752372742
7,-20.6057347670251,-15.7059497833252,1.10783135890961,-20.0322580645161,-17.0679683685303,0.727665543556213
8,-17.2384615384615,-15.5536422729492,0.710668623447418,-18.7692307692308,-17.2218151092529,0.419229090213776
9,-22,-18.2613849639893,0.915677309036255,-16.4804270462633,-17.1643524169922,0.857554495334625
10,-18,-19.4613838195801,0.871410429477692,-20,-19.5643520355225,0.766560196876526
11,-14.7424242424242,-18.5173244476318,0.986486315727234,-17.4318181818182,-18.54274559021,1.04429352283478
12,-12,-16.7961769104004,0.983312010765076,-16,-17.7362937927246,0.718501329421997
13,-20.8282208588957,-17.5141296386719,0.967505991458893,-14.9386503067485,-16.970178604126,0.891472160816193
14,-19.6,-17.0341300964355,0.934521615505219,-14.4266666666667,-16.5594272613525,0.977320313453674
15,-16.2941176470588,-16.6929531097412,1.02930855751038,-20.6078431372549,-16.6809959411621,0.819137275218964
16,-18,-17.3444671630859,1.06196522712708,-20,-17.1946315765381,0.808411240577698
17,-18.9352517985612,-18.731517791748,1.01355171203613,-22,-18.3946323394775,1.10888969898224
18,-13.2706766917293,-17.220006942749,0.960375130176544,-17.0751879699248,-18.8219394683838,1.07730197906494
19,-18.6266094420601,-17.0253295898438,0.687389314174652,-14.5665236051502,-18.849910736084,0.787510514259338
20,-22.7850746268657,-18.3235206604004,0.565527558326721,-21.265671641791,-18.9814758300781,0.888699769973755
21,-18.0484429065744,-18.3332099914551,0.959824442863464,-17.0692041522491,-18.3953170776367,0.828325808048248
22,-14.1046511627907,-17.3670921325684,0.7935791015625,-19.5232558139535,-17.8999671936035,1.07503855228424
23,-13.7846153846154,-17.469877243042,0.535278856754303,-18.3,-18.1449317932129,0.660594522953033
24,-18.7853773584906,-17.5016307830811,0.937897205352783,-15.6014150943396,-18.3519096374512,0.604735434055328
25,-17.453488372093,-16.4353141784668,0.609811842441559,-18.2674418604651,-17.7522621154785,0.382727026939392
26,-18.1733746130031,-16.4603023529053,0.901571452617645,-16.2476780185759,-17.5879573822021,-0.149867281317711
27,-12.8670212765957,-16.212776184082,0.848887085914612,-13.7287234042553,-16.4290504455566,0.199859827756882
28,-16.5570175438597,-16.7672557830811,0.986350238323212,-17.6447368421053,-16.2980003356934,0.444828033447266
29,-11.410480349345,-15.2922763824463,0.867197513580322,-14.5327510917031,-16.0842666625977,0.725400269031525
30,-19.2916666666667,-15.659912109375,1.02180290222168,-19.7462121212121,-16.3800201416016,0.488152682781219
31,-19.1818181818182,-15.8616008758545,0.867940247058868,-15.2727272727273,-16.1850318908691,0.450264155864716
32,-19.4789915966387,-17.1839942932129,1.1075222492218,-21,-17.6392860412598,0.38204038143158
33,-18.8642533936652,-17.6454429626465,1.06291222572327,-14.9954751131222,-17.109432220459,0.0566461458802223
34,-17.0653594771242,-18.7764167785645,1.10548889636993,-17.4575163398693,-17.6943874359131,0.532524704933167
35,-17.0677966101695,-18.3316440582275,1.12339961528778,-22.6237288135593,-18.2698917388916,0.684476673603058
36,-16.4620253164557,-17.7876853942871,1.23609471321106,-15.5253164556962,-18.3204078674316,0.481242477893829
37,-14.093023255814,-16.7104911804199,0.771135926246643,-18.2558139534884,-17.7715702056885,0.747313618659973
38,-16.7490774907749,-16.2874565124512,4.18058204650879,-14.1660516605166,-17.6056861877441,-0.440108835697174
39,-13.6620689655172,-15.6067981719971,1.155597448349,-12.0206896551724,-16.5183200836182,0.86996728181839
40,-13.2551724137931,-14.8442735671997,0.98425418138504,-24,-16.7935752868652,0.450633525848389
41,-16.125786163522,-14.7770261764526,1.20732808113098,-15.5094339622642,-16.790397644043,0.400553911924362
42,-18.4237726098191,-15.6431760787964,1.09765827655792,-17.5762273901809,-16.6544818878174,0.422080725431442
43,-19.0462962962963,-16.1026191711426,0.983286559581757,-19.1388888888889,-17.6490478515625,0.855994760990143
44,-20.5526315789474,-17.4807319641113,1.06296265125275,-16.3040935672515,-18.505729675293,0.785060286521912
45,-14.1608695652174,-17.6618709564209,1.04645645618439,-16.5782608695652,-17.0213813781738,0.757801473140717
46,-4,-15.2367143630981,0.944453299045563,-22,-18.3194942474365,0.820447027683258
47,-16,-14.7519588470459,1.24182665348053,-18.2647887323944,-18.4572067260742,0.81548547744751
48,-12.6153846153846,-13.4657773971558,1.50440585613251,-12.7784615384615,-17.1851215362549,-0.38550266623497
49,-16.7810650887574,-12.711464881897,0.912233293056488,-19.414201183432,-17.8071422576904,0.755710780620575
50,-18.6570397111913,-13.6106996536255,1.0324479341507,-20.2707581227437,-18.5456428527832,0.260982185602188
51,-12.8509615384615,-15.3808898925781,1.08619344234467,-10.7740384615385,-16.3004493713379,0.480169862508774
52,-20.2209302325581,-16.225076675415,0.864540219306946,-17.546511627907,-16.156795501709,0.423415273427963
53,-19.1509433962264,-17.5321865081787,1.04314625263214,-18.937106918239,-17.3885231018066,0.51495373249054
54,-17.8543897216274,-17.7468528747559,1.02100276947021,-16.3832976445396,-16.7823429107666,0.0928467065095901
55,-21.1320754716981,-18.2418613433838,1.0556663274765,-24,-17.528190612793,0.231202095746994
56,-20.4617834394904,-19.7640266418457,0.509652435779572,-19.1910828025478,-19.2115993499756,0.464849561452866
57,-20.9961832061069,-19.9190769195557,1.18046569824219,-19.381679389313,-19.5786323547363,0.409779250621796
58,-18.4037940379404,-19.7696475982666,1.19917130470276,-18,-19.3912105560303,0.581384420394897
59,-17.6413994169096,-19.7270469665527,0.797814130783081,-20.4752186588921,-20.2095966339111,0.0722083896398544
60,-18,-19.1006317138672,0.964409649372101,-18,-19.0095958709717,0.0793850868940353
61,-11.555910543131,-17.3194580078125,0.888086259365082,-19.5079872204473,-19.07297706604,0.512910544872284
62,-13.1188118811881,-15.7439823150635,0.576646268367767,-21.1485148514851,-19.4263439178467,0.640088558197021
63,-13.5017667844523,-14.7635774612427,1.03594172000885,-19.0035335689046,-19.6270503997803,0.567773580551147
64,-16.4781341107872,-14.5309238433838,1.05180704593658,-16,-18.732006072998,0.355238199234009
65,-17.5681818181818,-14.4445600509644,1.26826143264771,-17.5909090909091,-18.6501884460449,0.187412053346634
66,-18,-15.7333784103394,0.973815023899078,-14,-17.5485916137695,0.843842327594757
67,-17.6483516483516,-16.6392860412598,0.975314319133759,-15.4358974358974,-16.4060688018799,0.782031297683716
68,-14,-16.7389335632324,1.00107514858246,-18,-16.2053623199463,0.722748756408691
69,-20.7554858934169,-17.5944042205811,1.04119849205017,-20.9905956112853,-17.2034797668457,0.786393105983734
70,-21.390243902439,-18.3588161468506,0.974008440971375,-16.0066518847007,-16.8866291046143,0.896455764770508
71,-11.1398176291793,-16.986780166626,0.823823571205139,-12.9088145896657,-16.6683921813965,0.747070550918579
72,-18,-17.0571098327637,0.746510326862335,-20,-17.5812110900879,0.875070631504059
73,-22,-18.6571083068848,1.11440718173981,-14,-16.7812118530273,0.976119816303253
74,-22,-18.9060115814209,0.873866975307465,-10.4454148471616,-14.6721773147583,1.04413175582886
75,-12.8385964912281,-17.1956825256348,0.376800417900085,-15.5368421052632,-14.5782136917114,0.985668182373047
76,-16.0508021390374,-18.1778812408447,0.746958196163177,-12.1791443850267,-14.4322814941406,1.01225209236145
77,-20,-18.577880859375,0.813141047954559,-20.4380165289256,-14.5198841094971,0.917935311794281
78,-18,-17.7778816223145,1.13224625587463,-13.1115879828326,-14.3422012329102,0.734007954597473
79,-19.635593220339,-17.3049983978271,0.219070971012115,-16.1398305084746,-15.4810838699341,0.882218778133392
80,-18,-18.3372802734375,1.02257001399994,-17.1206225680934,-15.7978391647339,0.449459463357925
81,-18.3970223325062,-18.8065223693848,1.06220877170563,-19.5657568238213,-17.2751636505127,1.12457096576691
82,-20.5045317220544,-18.9074287414551,0.860125005245209,-16.4138972809668,-16.4703388214111,0.758207380771637
83,-15.7508090614887,-18.457592010498,1.14949798583984,-13.0711974110032,-16.4622611999512,0.414767265319824
84,-6,-15.7304716110229,1.02550899982452,-16,-16.4342937469482,0.711834013462067
85,-24,-16.9304714202881,1.10648286342621,-20,-17.0101699829102,0.945414423942566
86,-15.6766917293233,-16.3864078521729,1.06343245506287,-16.6466165413534,-16.426342010498,0.807354390621185
87,-18.1194968553459,-15.9093990325928,1.03402674198151,-17.8238993710692,-16.7083435058594,0.718108177185059
88,-16.3023255813953,-16.019702911377,1.22069585323334,-16.3682170542636,-17.3677463531494,0.960761725902557
89,-13.4518518518519,-17.5100746154785,0.990392625331879,-11.4888888888889,-16.4655246734619,0.788980305194855
90,-20,-16.7100734710693,1.13711035251617,-8,-14.0655241012573,1.03200805187225
91,-19.4786967418546,-17.4704742431641,1.08739542961121,-16.0375939849624,-13.9437198638916,0.815166473388672
92,-16.9351535836177,-17.233606338501,1.17519700527191,-15.4914675767918,-13.4772338867188,0.885541021823883
93,-15.2915129151292,-17.0314426422119,0.850157618522644,-21.3690036900369,-14.477391242981,0.783930540084839
94,-17.5783783783784,-17.856746673584,1.14035129547119,-17.1,-15.5996122360229,0.957474291324615
95,-20,-17.856746673584,0.996810495853424,-10,-15.9996128082275,1.00643384456635
96,-14.6745182012848,-16.8959121704102,2.94397759437561,-20.6702355460385,-16.9261417388916,-1.30260944366455
97,-18.2637362637363,-17.1616287231445,4.81236028671265,-16.8351648351648,-17.194881439209,-0.885835945606232
98,-17.5302491103203,-17.6093769073486,0.953833222389221,-17.3914590747331,-16.3993721008301,0.941411137580872
99,-17.0571428571429,-17.5051307678223,0.926016330718994,-18.22,-16.6233711242676,0.824921131134033
100,-17.5360824742268,-17.0123481750488,1.01907813549042,-12.8453608247423,-17.1924438476562,0.954144239425659
101,-18,-17.6774406433105,0.918933629989624,-22.3661327231121,-17.531623840332,0.610347628593445
102,-20.9664804469274,-18.2179908752441,0.990652620792389,-16.0167597765363,-17.3679428100586,0.97492915391922
103,-14,-17.51194190979,1.17674398422241,-16,-17.0896492004395,0.36766317486763
104,-17.525974025974,-17.6057071685791,0.939153134822845,-14.7467532467532,-16.3950004577637,0.842913806438446
105,-15.1749271137026,-17.1334762573242,0.960038542747498,-11.9212827988338,-16.2101860046387,0.350065320730209
106,-12.7333333333333,-16.0801429748535,1.00492000579834,-12.9259259259259,-14.3221454620361,0.60222977399826
107,-18,-15.4868469238281,0.8929403424263,-10,-13.1187925338745,1.10743010044098
108,-15.4311926605505,-15.7730865478516,0.819172084331512,-20,-13.9187927246094,0.944300711154938
109,-15.5448717948718,-15.3768644332886,1.15483355522156,-22,-15.3694410324097,1.00306749343872
110,-21.0965250965251,-16.5611839294434,0.89553564786911,-15.0772200772201,-16.0006294250488,1.00790572166443
111,-14.2167630057803,-16.8578701019287,0.969290554523468,-15.635838150289,-16.542610168457,0.773525238037109
112,-22,-17.6578712463379,1.05061566829681,-9.29810298102981,-16.4022331237793,1.37330722808838
113,-14.5721518987342,-17.48606300354,1.92407274246216,-17.4556962025316,-15.8933696746826,-0.979741215705872
114,-15.0706713780919,-17.3912239074707,1.78193652629852,-11.2614840989399,-13.7456684112549,-0.279181659221649
115,-10.6480836236934,-15.30153465271,2.48509669303894,-13.5365853658537,-13.4375410079956,-0.809901356697083
116,-14.3601108033241,-15.3302030563354,0.885143160820007,-18.7229916897507,-14.0549716949463,0.942138314247131
117,-15.5833333333333,-14.0468702316284,1.09445774555206,-13.4444444444444,-14.8842391967773,0.813159465789795
118,-14,-13.9324398040771,1.14496195316315,-6,-12.5931005477905,0.916307389736176
119,-11.8350877192982,-13.2853221893311,1.06666505336761,-16.9929824561403,-13.7393999099731,0.935578644275665
120,-12,-13.5557069778442,1.20202779769897,-13.2140077821012,-13.6748838424683,1.01034164428711
121,-22,-15.0836839675903,1.12633919715881,-22.8630705394191,-14.5029010772705,1.07769966125488
122,-16.5271317829457,-15.2724437713623,1.23721218109131,-14.3682170542636,-14.6876554489136,0.939723610877991
123,-12.2924528301887,-14.9309339523315,1.06468653678894,-18.4182389937107,-17.1713027954102,0.99649715423584
124,-18.0175438596491,-16.1674251556396,2.40493726730347,-16.2105263157895,-17.0148124694824,-0.978529214859009
125,-15.889400921659,-16.9453067779541,1.11093556880951,-16.5714285714286,-17.6862964630127,0.7753946185112
126,-20.2335025380711,-16.5920066833496,1.01888310909271,-16.7106598984772,-16.4558143615723,0.849332928657532
127,-10,-15.2865800857544,0.890688061714172,-14,-16.3821697235107,0.96772313117981
128,-17.8547008547009,-16.3990287780762,1.01911604404449,-17.5441595441595,-16.2073554992676,0.718953609466553
129,-4.70722433460076,-13.7369661331177,1.11936855316162,-20.2015209125475,-17.0055522918701,0.29936471581459
130,-12,-12.9590854644775,1.11718285083771,-18,-17.2912673950195,0.622088313102722
131,-20,-12.9123840332031,1.11404693126678,-14.4039215686275,-16.8299217224121,0.500980377197266
132,-14,-13.712384223938,1.03967368602753,-18,-17.6299209594727,0.936969697475433
133,-18.1313868613139,-13.7677211761475,1.08778667449951,-17.8029197080292,-17.6816730499268,0.632893204689026
134,-14.5953947368421,-15.7453565597534,1.83056724071503,-16.7434210526316,-16.9900531768799,-0.651702761650085
135,-16,-16.5453567504883,1.1002995967865,-8,-14.9900531768799,0.930031418800354
136,-18.4211822660099,-16.2295932769775,0.924619853496552,-18.3226600985222,-15.7738008499146,0.918615758419037
137,-19.9645833333333,-17.4225101470947,0.87628561258316,-17.9104166666667,-15.7558841705322,0.969030857086182
138,-15.4894514767932,-16.8941230773926,1.04418337345123,-18.2405063291139,-15.8434019088745,1.11495673656464
139,-10.816199376947,-16.1382827758789,1.15564107894897,-17.5638629283489,-16.0074901580811,1.02744269371033
140,-8,-14.5382823944092,1.12373065948486,-12,-16.8074913024902,0.971550464630127
141,-19.4133016627078,-14.7367067337036,1.05967319011688,-18.0451306413302,-16.7519836425781,1.00301325321198
142,-6.64315352697095,-12.0724210739136,1.18606221675873,-18.643153526971,-16.8985328674316,-1.01259529590607
143,-16.3972602739726,-12.2539834976196,0.991479098796844,-18.9315068493151,-17.0367317199707,0.866428077220917
144,-16,-13.2907438278198,1.13177466392517,-12,-15.9239597320557,0.826124846935272
145,-21.301724137931,-15.9510879516602,1.06526744365692,-16.4633620689655,-16.8166313171387,0.823316037654877
146,-16.8082191780822,-15.4300718307495,1.25889647006989,-20.2602739726027,-17.2596588134766,0.718671917915344
147,-16,-17.301441192627,1.08460259437561,-10,-15.5310287475586,0.696841835975647
148,-15.4080996884735,-17.1036109924316,1.04736340045929,-17.5794392523364,-15.2606153488159,0.732984006404877
149,-17.239852398524,-17.3515815734863,1.14526641368866,-14.7970479704797,-15.8200244903564,0.771294236183167
150,-11.9887640449438,-15.4889879226685,1.2683801651001,-18.6816479400749,-16.2636814117432,0.980140209197998
151,-20,-16.1273422241211,0.838710010051727,-22,-16.6116275787354,-0.57470041513443
152,-20.5656836461126,-17.0404796600342,0.589914917945862,-16.1554959785523,-17.8427257537842,0.765942215919495
153,-16,-17.1588592529297,0.991002440452576,-8,-15.9268369674683,0.792190492153168
154,-16.4245283018868,-16.9957942962646,0.539222538471222,-10.9716981132075,-15.1617679595947,-0.74949324131012
155,-10,-16.5980415344238,1.03072047233582,-20,-15.4254398345947,1.03839147090912
156,-15.0127551020408,-15.6005935668945,0.322827279567719,-19.5612244897959,-14.9376831054688,-0.474032670259476
157,-17.6206896551724,-15.0115947723389,0.538105547428131,-16,-14.9065856933594,0.951926827430725
158,-21.0641025641026,-16.0244159698486,4.9672646522522,-17.0064102564103,-16.7078666687012,-0.92818820476532
159,-14.3785714285714,-15.6152238845825,1.61299228668213,-14.7595238095238,-17.4654312133789,-0.197144761681557
160,-14,-16.4152240753174,1.11768901348114,-20,-17.4654312133789,0.95707643032074
161,-13.228125,-16.0582981109619,4.68589925765991,-16.3125,-16.8156852722168,-0.197132140398026
162,-10,-14.5341596603394,0.96969085931778,-12,-16.0156860351562,0.995065867900848
163,-12.2605863192182,-12.7734565734863,0.306161612272263,-15.2768729641694,-15.6697788238525,0.574782490730286
164,-18.1580459770115,-13.5293521881104,0.848205804824829,-22,-17.1178741455078,0.672544419765472
165,-16.6225895316804,-14.0538692474365,0.0158320181071758,-14.4407713498623,-16.0060291290283,0.475427240133286
166,-14,-14.2082443237305,1.10441052913666,-12,-15.1435289382935,0.935563325881958
167,-16.5355805243446,-15.51535987854,0.948613703250885,-21.2808988764045,-16.9997081756592,0.941218376159668
168,-17.9657701711491,-16.6563968658447,0.940394580364227,-15.59902200489,-17.0641384124756,0.118755422532558
169,-18.5657894736842,-16.7379455566406,1.14319372177124,-18.2039473684211,-16.3049278259277,0.44419077038765
170,-20,-17.4134273529053,0.59862869977951,-19.305912596401,-17.2779579162598,0.287914782762527
171,-14.4773269689737,-17.5088920593262,0.7102210521698,-14.582338902148,-17.7944240570068,0.5324627161026
172,-14.1060903732809,-17.0229949951172,0.483510941267014,-22.7387033398821,-18.0859832763672,0.61828887462616
173,-15.210355987055,-16.4719123840332,0.440656930208206,-14.546925566343,-17.8755645751953,-0.22646352648735
174,-10.6271186440678,-14.8841781616211,0.759721398353577,-13.5988700564972,-16.9545497894287,0.246296018362045
175,-19.1651090342679,-14.7171993255615,0.847387194633484,-18.9158878504673,-16.8765449523926,-0.338886201381683
176,-15.2409638554217,-14.8699283599854,0.907569646835327,-12.9951807228916,-16.5591125488281,0.734981596469879
177,-17.3519163763066,-15.5190935134888,0.279590368270874,-13.2996515679443,-14.6713027954102,-0.269625067710876
178,-24,-17.2770214080811,0.724823415279388,-16.0561797752809,-14.9731540679932,0.910229921340942
179,-18.0191693290735,-18.7554302215576,0.400268793106079,-15.8434504792332,-15.4220705032349,0.898935198783875
180,-11.6590330788804,-17.2542152404785,0.944505214691162,-21.3587786259542,-15.9106492996216,1.15332841873169
181,-18.712,-17.9484233856201,0.37039652466774,-20,-17.3116111755371,0.692431032657623
182,-9.21052631578947,-16.3201465606689,2.08514475822449,-18.5303643724696,-18.3577537536621,-0.583335161209106
183,-13.6820809248555,-14.2565612792969,1.72381567955017,-19.8381502890173,-19.1141490936279,0.799286723136902
184,-16.6812865497076,-13.9889850616455,5.03659009933472,-18.3304093567251,-19.6115417480469,-0.572243809700012
185,-20,-15.6571779251099,1.00658321380615,-17.4608695652174,-18.831958770752,0.37432199716568
186,-18.8541666666667,-15.6856107711792,0.95374071598053,-14.21875,-17.675708770752,0.315664440393448
187,-16.1309523809524,-17.0696964263916,3.43005633354187,-11.3333333333333,-16.2363014221191,-0.65765255689621
188,-10.4581939799331,-16.4249210357666,1.55573678016663,-17.066889632107,-15.6820497512817,0.63138735294342
189,-17.1272727272727,-16.5141181945801,0.0934543311595917,-19.4090909090909,-15.8977861404419,0.557276487350464
190,-14.1464968152866,-15.3434171676636,1.3838449716568,-16.9808917197452,-15.8017911911011,1.01856112480164
191,-10.8176470588235,-13.7361125946045,4.77118301391602,-20.8294117647059,-17.1239223480225,-0.302159786224365
192,-17.436974789916,-13.9973173141479,2.98144865036011,-15.8453781512605,-18.026330947876,-0.234783068299294
193,-17.235807860262,-15.3528413772583,0.979461908340454,-20,-18.6129550933838,-0.225481003522873
194,-13.391061452514,-14.605598449707,0.992657482624054,-13.8882681564246,-17.5087890625,0.647601544857025
195,-20.6318537859008,-15.9026689529419,1.28913414478302,-15.5822454308094,-17.229061126709,0.560159206390381
196,-16,-16.9391384124756,1.23448145389557,-20,-17.0631790161133,0.84002685546875
197,-16.5017793594306,-16.7520999908447,2.35604572296143,-14.085409252669,-16.7111854553223,-0.461948722600937
198,-17.5631691648822,-16.8175716400146,1.01095461845398,-18.865096359743,-16.484203338623,0.833179235458374
199,-15.504854368932,-17.2403297424316,3.20648241043091,-15.8252427184466,-16.8715991973877,0.450858592987061
200,-19.9189944134078,-17.0977592468262,1.08062922954559,-18.9748603351955,-17.550121307373,0.441784292459488
201,-18.0767386091127,-17.5131072998047,0.967995703220367,-16.5491606714628,-16.8599529266357,0.821148276329041
202,-18.5377906976744,-17.9203090667725,2.50578284263611,-18.9244186046512,-17.8277549743652,0.536596834659576
203,-12.1623529411765,-16.840145111084,1.07941389083862,-18.6047058823529,-17.7756767272949,-0.366204470396042
204,-17.5714285714286,-17.2534599304199,2.06791973114014,-17.3333333333333,-18.0772972106934,-0.246540129184723
205,-16.2175066312997,-16.5131645202637,0.957240581512451,-16.5305039787798,-17.5884246826172,-0.407404124736786
206,-15.9008498583569,-16.0779857635498,0.99984073638916,-18.6798866855524,-18.0145683288574,-0.486708015203476
207,-22.6185344827586,-16.8941345214844,0.261989951133728,-11.3943965517241,-16.5085639953613,-0.201909348368645
208,-22,-18.8616638183594,1.25288355350494,-14.0290456431535,-15.5934324264526,0.65946352481842
209,-16.0935251798561,-18.5660839080811,1.84215331077576,-20.2589928057554,-16.1785640716553,0.19708839058876
210,-22,-19.722583770752,0.947568416595459,-20,-16.8724632263184,0.0436164066195488
211,-18.887537993921,-20.3199195861816,1.08607459068298,-18.5379939209726,-16.8440856933594,0.60203093290329
212,-17.1880877742947,-19.233829498291,1.75776958465576,-13.9247648902821,-17.3501605987549,1.14873504638672
213,-14.4923076923077,-17.7322902679443,1.1565523147583,-16.8153846153846,-17.9074287414551,0.94864946603775
214,-18.7539936102236,-18.2643852233887,0.942275166511536,-14.3642172523962,-16.7284736633301,0.817003607749939
215,-17.2473794549266,-17.3138618469238,0.192843154072762,-12.0293501048218,-15.1343412399292,0.88934600353241
216,-10,-15.5363540649414,1.11053836345673,-12,-13.8267421722412,1.0178450345993
217,-9.03321033210332,-13.9053783416748,1.32471323013306,-17.3690036900369,-14.5155916213989,0.428909808397293
218,-16,-14.206916809082,1.09220004081726,-18,-14.7525148391724,0.972084760665894
219,-16.1107142857143,-13.6782608032227,1.22136569023132,-14.7464285714286,-14.8289566040039,0.612463295459747
220,-14.8347107438017,-13.1957273483276,0.551165103912354,-18.4490358126722,-16.1128940582275,0.724236071109772
221,-15.5640449438202,-14.3085355758667,1.08398222923279,-14.7370786516854,-16.6603088378906,0.938277125358582
222,-16,-15.7018938064575,1.12383723258972,-12,-15.5865077972412,1.04114639759064
223,-18,-16.1018943786621,1.14311015605927,-16,-15.1865081787109,1.01207947731018
224,-10.7107231920199,-15.0218963623047,1.23022699356079,-14.214463840399,-15.0801162719727,0.832976043224335
225,-16.7142857142857,-15.3978099822998,2.84377431869507,-21.6285714285714,-15.7160234451294,-0.166759580373764
226,-19.3320683111954,-16.1514167785645,0.871903955936432,-13.9791271347249,-15.564432144165,0.42740124464035
227,-12.6896551724138,-15.4893465042114,0.598914444446564,-17.2672413793103,-16.6178798675537,0.60888546705246
228,-12.9142857142857,-14.4722032546997,1.77196836471558,-19,-17.2178802490234,-0.858241677284241
229,-11.2597402597403,-14.5820055007935,1.22822105884552,-9.76623376623377,-16.3282356262207,1.33607888221741
230,-14.6946778711485,-14.1780834197998,3.3950731754303,-20.7198879551821,-16.1464977264404,0.007803775370121
231,-19.3333333333333,-14.178337097168,1.83160972595215,-15.2203389830508,-16.3947410583496,0.783273577690125
232,-13.7806004618938,-14.3965272903442,1.56694149971008,-20.6420323325635,-17.0696983337402,0.369075208902359
233,-12.1234567901235,-14.2383604049683,1.03582513332367,-20.4320987654321,-17.3561191558838,-0.414329200983047
234,-12,-14.3864135742188,1.20311164855957,-12,-17.8028717041016,0.541967868804932
235,-18,-15.047477722168,1.0892516374588,-12,-16.058895111084,1.02382731437683
236,-16.6621621621622,-14.5132446289062,2.79691934585571,-22.5236486486486,-17.5195560455322,0.153681769967079
237,-16.2494382022472,-15.0070114135742,0.25580683350563,-16,-16.5911502838135,0.331944018602371
238,-19.6910755148741,-16.5205345153809,-0.000134470872581005,-15.350114416476,-15.5747528076172,-0.646887958049774
239,-18.2507836990596,-17.7706928253174,0.522441029548645,-20.9373040752351,-17.3622131347656,-0.91912055015564
240,-14,-16.9706916809082,1.16031444072723,-12,-17.3622131347656,1.01569390296936
241,-12.1428571428571,-16.0668315887451,0.811584413051605,-15.5929919137466,-15.9760818481445,0.487422704696655
242,-20,-16.8169441223145,1.14025247097015,-22,-17.176082611084,0.738594055175781
243,-16.5693950177936,-16.1926078796387,0.559856176376343,-10.5871886120996,-16.2234973907471,0.856498718261719
244,-17.4783783783784,-16.0381259918213,0.42089718580246,-12.7675675675676,-14.5895490646362,0.0742613449692726
245,-6,-14.4381256103516,1.10951900482178,-16,-15.3895492553711,1.13207566738129
246,-8.63529411764706,-13.7366132736206,1.51237380504608,-12.921568627451,-14.8552646636963,-0.234657347202301
247,-15.0854700854701,-12.7537078857422,0.862877130508423,-9.72649572649573,-12.4005641937256,-0.234824642539024
248,-13.5432098765432,-12.1484699249268,0.585995495319366,-11.462962962963,-12.5757188796997,0.629910826683044
249,-12.9727047146402,-11.24733543396,0.59433251619339,-15.5632754342432,-13.1348600387573,-0.0193240344524384
250,-18.3052208835341,-13.7083797454834,0.511533498764038,-9.82329317269076,-11.8995189666748,0.405178070068359
251,-14.8072289156626,-14.9427671432495,1.05182945728302,-18.004016064257,-12.9160079956055,-0.254495710134506
252,-21.5013698630137,-16.2259464263916,1.2780556678772,-15.1945205479452,-14.009614944458,0.192035183310509
253,-6,-14.7173051834106,1.14546227455139,-16,-14.9170227050781,1.0223571062088
254,-17.3708133971292,-15.5969266891479,1.12981367111206,-16.8421052631579,-15.1727886199951,0.830908358097076
255,-15.6666666666667,-15.0692157745361,1.13445448875427,-10.8533333333333,-15.3787965774536,0.959787547588348
256,-11.3153347732181,-14.3708362579346,0.352275967597961,-17.658747300216,-15.3097410202026,-0.276026666164398
257,-16,-13.2705631256104,0.962692201137543,-8,-13.8708372116089,1.08003687858582
258,-14.9506172839506,-15.0606861114502,1.31464469432831,-15.0814814814815,-13.6871337890625,0.720458209514618
259,-15.9518599562363,-14.7768955230713,1.40924835205078,-16.7877461706783,-13.6762619018555,0.50152975320816
260,-18.247619047619,-15.2930860519409,0.488623976707458,-20,-15.50559425354,0.706485986709595
261,-17.0896551724138,-16.4479484558105,0.893155634403229,-20.1586206896552,-16.0055694580078,0.0670336186885834
262,-17.8678756476684,-16.8215255737305,0.663365840911865,-20.6502590673575,-18.5356216430664,0.584019422531128
263,-10.6124031007752,-15.9538831710815,1.36193192005157,-14.7170542635659,-18.4627342224121,-0.479091674089432
264,-18.1799485861183,-16.3995018005371,1.05662047863007,-16.9485861182519,-18.4949035644531,0.667993009090424
265,-14.4170616113744,-15.6333894729614,1.05619513988495,-16.0947867298578,-17.7138614654541,-0.740557253360748
266,-20.046875,-16.22483253479,0.0934105888009071,-20.4739583333333,-17.776927947998,-0.181162089109421
267,-17.7219387755102,-16.1956443786621,-0.168072804808617,-17.7372448979592,-17.1943264007568,0.328790366649628
268,-6,-15.2731647491455,1.09366655349731,-16,-17.4509162902832,0.905986905097961
269,-16.7491289198606,-14.9870014190674,0.991320729255676,-20.3519163763066,-18.1315822601318,0.87416273355484
270,-13.3029315960912,-14.7641754150391,0.955450594425201,-15.2410423452769,-17.9608345031738,0.990306556224823
271,-14.5456919060052,-13.6639385223389,0.791095554828644,-16.6266318537859,-17.1913661956787,0.779983699321747
272,-20,-14.1195507049561,1.16598451137543,-9.71186440677966,-15.5862913131714,0.947816014289856
273,-14.3933054393305,-15.7982120513916,0.823949754238129,-20.7175732217573,-16.529806137085,0.482931643724442
274,-20,-16.4483852386475,1.12013530731201,-20.6711409395973,-16.5936508178711,0.907077789306641
275,-21.4065040650407,-18.0690994262695,1.83254301548004,-20.6341463414634,-17.6722717285156,0.242993593215942
276,-12.3873684210526,-17.6374340057373,0.168175905942917,-12.2547368421053,-16.7978935241699,-0.722734808921814
277,-16,-16.8374366760254,1.24095213413239,-12,-17.2555198669434,1.01528143882751
278,-17.241935483871,-17.4071617126465,2.37408852577209,-15.991935483871,-16.3103923797607,-0.257008224725723
279,-15.1298701298701,-16.4331359863281,1.07102572917938,-15.8722943722944,-15.350622177124,1.04557287693024
280,-10,-14.151834487915,1.22190380096436,-18,-14.8237943649292,0.979423701763153
281,-21.4929577464789,-15.9729518890381,1.62817025184631,-22.0739436619718,-16.787633895874,-0.000671453773975372
282,-8,-14.3729524612427,1.14279186725616,-14,-17.1876335144043,1.17925024032593
283,-17.578231292517,-14.4402132034302,1.16189193725586,-15.4195011337868,-17.0731468200684,0.921358048915863
284,-16.5317220543807,-14.7205829620361,1.33909666538239,-14.7794561933535,-16.8545799255371,-0.875746250152588
285,-14,-15.5205821990967,1.26738977432251,-12,-15.6545810699463,1.12700366973877
286,-18.6575342465753,-14.9534969329834,0.813956260681152,-17.0684931506849,-14.6534910202026,-0.684605419635773
287,-20.8552631578947,-17.5245494842529,0.973237335681915,-13.1842105263158,-14.4903316497803,-0.801667988300323
288,-15.9845679012346,-17.2058162689209,0.823169529438019,-20.9228395061728,-15.5910005569458,-0.185294061899185
289,-18.1986531986532,-17.5392036437988,0.890432178974152,-18.3333333333333,-16.3017768859863,0.723203837871552
290,-14,-17.5392036437988,1.15405237674713,-6,-15.1017761230469,1.08478116989136
291,-20.1732283464567,-17.842342376709,0.993596434593201,-16.2913385826772,-14.9463443756104,-0.361793041229248
292,-18.2184210526316,-17.3149757385254,0.889307200908661,-12.0078947368421,-14.7110805511475,-0.180218815803528
293,-15.7810218978102,-17.2742652893066,1.46229386329651,-15.4890510948905,-13.6243238449097,0.784326732158661
294,-8,-15.2345333099365,1.12042486667633,-14,-12.7576570510864,1.02531027793884
295,-18.4978723404255,-16.1341094970703,1.43883788585663,-18,-15.1576566696167,0.392406761646271
296,-17.768115942029,-15.6530857086182,0.936413526535034,-16.231884057971,-15.1457653045654,0.849504113197327
297,-12,-14.40940284729,1.19331192970276,-14,-15.5441865921021,1.12576270103455
298,-16.1724137931034,-14.4876804351807,1.34514200687408,-18.2493368700265,-16.0962429046631,0.310162365436554
299,-10.4761904761905,-14.9829177856445,1.12826383113861,-16.347619047619,-16.5657691955566,0.854801774024963
300,-14.5333333333333,-14.1900100708008,0.567140758037567,-15.06,-15.9777679443359,1.32930302619934
301,-20.0753138075314,-14.6514492034912,0.580702364444733,-13.0878661087866,-15.3489637374878,0.646972000598907
302,-16,-15.4514493942261,1.16935706138611,-18.0291262135922,-16.1547889709473,1.19851672649384
303,-10,-14.2169675827026,1.22628808021545,-14,-15.3049221038818,1.1625884771347
304,-20.203125,-16.1623554229736,0.895555853843689,-20,-16.0353965759277,1.24819934368134
305,-14,-16.0556888580322,1.30842578411102,-14,-15.8233976364136,1.17363154888153
306,-17.2469135802469,-15.490008354187,1.1628406047821,-16.7530864197531,-16.5564422607422,1.15435695648193
307,-14.6344410876133,-15.2168960571289,0.924059689044952,-19.3021148036254,-16.8110389709473,1.13517594337463
308,-13.9927272727273,-16.0154418945312,1.18794059753418,-20.6363636363636,-18.1383113861084,1.165531873703
309,-19.655487804878,-15.9059143066406,1.08706200122833,-14.7317073170732,-17.0846538543701,1.28200244903564
310,-14,-15.9059143066406,1.1759272813797,-20,-18.2846546173096,1.16339099407196
311,-16.6972222222222,-15.7959747314453,1.02803242206573,-12,-17.3340358734131,0.929702758789062
312,-12,-15.2690868377686,1.19215559959412,-18,-17.0736141204834,1.19759082794189
313,-16.765625,-15.8236665725708,0.636253774166107,-18.26953125,-16.6002464294434,0.897566676139832
314,-12.3152173913043,-14.3556118011475,1.06892609596252,-18.8079710144928,-17.4155006408691,0.0352553799748421
315,-16.8864468864469,-14.9329013824463,1.25880074501038,-18.6007326007326,-17.1356468200684,1.0830157995224
316,-14,-14.3934574127197,1.12454080581665,-20,-18.7356452941895,1.13718855381012
317,-14.1020408163265,-14.8138656616211,0.741772055625916,-10.9132653061224,-17.3183002471924,1.16133260726929
318,-18.7196652719665,-15.2046737670898,1.08233952522278,-13.3138075313808,-16.3271560668945,1.18820905685425
319,-18.9333333333333,-16.5282974243164,1.01673400402069,-14.8,-15.5255613327026,-0.719529569149017
320,-13.4501992031873,-15.8410491943359,0.927751302719116,-20.9123505976096,-15.9878845214844,1.13221180438995
321,-16.4052631578947,-16.3221015930176,1.15640354156494,-14.3157894736842,-14.8510417938232,1.05847382545471
322,-14.9159663865546,-16.484884262085,0.85215961933136,-15.7436974789916,-15.8171291351318,1.20259356498718
323,-15.8545454545455,-15.9118623733521,0.911823689937592,-19.5272727272727,-17.0598239898682,1.07791197299957
324,-19.46875,-16.0189456939697,0.937708854675293,-12.6875,-16.6373233795166,-0.330928921699524
325,-12.1650943396226,-15.7619228363037,0.7577263712883,-18.5518867924528,-16.1652297973633,1.0221334695816
326,-20.1346801346801,-16.5078067779541,0.0890660285949707,-16.1447811447811,-16.53102684021,-0.947236716747284
327,-16.2565055762082,-16.7759132385254,1.14020490646362,-14.6282527881041,-16.3079395294189,1.13232934474945
328,-11.8256578947368,-15.9701366424561,1.34115481376648,-15.8092105263158,-15.5643262863159,1.19181621074677
329,-24,-16.8763866424561,1.16161799430847,-8.21752265861027,-14.6703310012817,1.08307409286499
330,-12.7888198757764,-17.0011329650879,1.155597448349,-13.0372670807453,-13.5674076080322,1.16688370704651
331,-7.90443686006826,-14.5550842285156,1.04367709159851,-14.6006825938567,-13.2585878372192,1.14245367050171
332,-11.4888178913738,-13.6015472412109,1.30969965457916,-13.7476038338658,-13.0824565887451,1.04317152500153
333,-20.8207282913165,-15.4005603790283,1.27413189411163,-11.3053221288515,-12.1816787719727,0.957880973815918
334,-10.7598784194529,-12.7525358200073,1.07045781612396,-11.8784194528875,-12.9138593673706,0.963064432144165
335,-6.6865671641791,-11.5320863723755,1.19569683074951,-20.3731343283582,-14.3810329437256,0.87525600194931
336,-15.9424460431655,-13.1396884918213,1.13786327838898,-12.7841726618705,-14.0177307128906,0.86156564950943
337,-12.3269230769231,-13.3073091506958,1.27545785903931,-14.2307692307692,-14.1143646240234,0.809744715690613
338,-14.4303797468354,-12.0292387008667,1.12934029102325,-8.42088607594937,-13.5374755859375,0.934112191200256
339,-16.5055762081784,-13.1783781051636,1.23420965671539,-15.9405204460967,-14.3498964309692,1.13327980041504
340,-19.1219512195122,-15.6654558181763,1.15437698364258,-21.0592334494774,-14.4871168136597,1.22409296035767
341,-13.1574344023324,-15.1084537506104,1.19181442260742,-22.600583090379,-16.4503974914551,1.14697957038879
342,-14.9090909090909,-15.6248874664307,1.19472372531891,-15.469696969697,-16.698184967041,0.944986581802368
343,-18.5888324873096,-16.4565773010254,2.02496385574341,-16.9492385786802,-18.4038543701172,0.404829174280167
344,-12.3727272727273,-15.6300077438354,1.18505942821503,-14.2772727272727,-18.0712051391602,1.19926142692566
345,-20,-15.8056163787842,1.17137181758881,-14.1283018867925,-16.6850185394287,1.19151735305786
346,-18,-16.7741298675537,1.16584515571594,-14,-14.9649019241333,1.07188010215759
347,-15.1941747572816,-16.831148147583,1.18392276763916,-7.32362459546925,-13.3356876373291,1.21690118312836
348,-16.3971119133574,-16.3928031921387,0.731659650802612,-24,-14.7458400726318,-0.0276632830500603
349,-18.1837606837607,-17.5550098419189,1.32941579818726,-16.4017094017094,-15.1707277297974,1.16101276874542
350,-11.0491803278689,-15.7648448944092,1.20291876792908,-16.775956284153,-15.7002582550049,1.05510830879211
351,-16.359477124183,-15.4367418289185,0.981044948101044,-15.6797385620915,-16.036205291748,1.1872318983078
352,-10.906103286385,-14.5791273117065,1.1629604101181,-15.6572769953052,-17.7029361724854,1.31461942195892
353,-18.0169491525424,-14.903094291687,1.11411380767822,-9.79661016949153,-14.8622589111328,1.2738391160965
354,-16,-14.4663419723511,1.13498866558075,-12.3888888888889,-14.0596952438354,1.13016891479492
355,-14.1783216783217,-15.092170715332,1.06925857067108,-14.2797202797203,-13.5604476928711,1.25562369823456
356,-15.4542586750789,-14.9111270904541,1.212721824646,-16.1671924290221,-13.65793800354,1.1525194644928
357,-14.5183946488294,-15.6335849761963,1.13490986824036,-8.11705685618729,-12.1498928070068,1.07860696315765
358,-13.1220472440945,-14.6546049118042,1.1171510219574,-11.2362204724409,-12.4378156661987,1.19076538085938
359,-11.061919504644,-13.6669893264771,1.12712979316711,-20.6625386996904,-14.0925445556641,1.18032884597778
360,-14,-13.6313228607178,1.14974653720856,-14,-14.0366010665894,1.19685459136963
361,-15.530303030303,-13.6465330123901,1.18547022342682,-22.7992424242424,-15.3630113601685,1.20755052566528
362,-20.6515679442509,-14.8731670379639,-0.213739112019539,-14.6515679442509,-16.6699142456055,-0.766507387161255
363,-16,-15.4487581253052,1.13195443153381,-17.0821917808219,-17.8391075134277,1.18133890628815
364,-15.8,-16.3963737487793,0.687904834747314,-20.1384615384615,-17.7342929840088,-0.770587265491486
365,-13.7799227799228,-16.3523597717285,1.02144289016724,-9.86486486486486,-16.9072666168213,1.22920119762421
366,-16,-16.4462985992432,1.20020604133606,-18,-15.9474182128906,1.27775073051453
367,-16.9312714776632,-15.7022380828857,1.05675399303436,-15.2749140893471,-16.0720863342285,1.29764115810394
368,-12,-14.9022388458252,1.18821346759796,-16,-15.8556489944458,1.31812989711761
369,-6.46113989637306,-13.0344667434692,1.02643883228302,-18.9896373056995,-15.625883102417,1.28374290466309
370,-17.1986754966887,-13.7182178497314,1.16707718372345,-13.3443708609271,-16.3217830657959,1.31050610542297
371,-9.21686746987952,-12.361590385437,1.16587460041046,-13.6104417670683,-15.4438724517822,1.32199239730835
372,-12,-11.3753356933594,1.22650504112244,-14,-15.1888904571533,1.29743313789368
373,-12,-11.3753356933594,1.21355402469635,-10,-13.9888896942139,1.27890086174011
374,-13.9690265486726,-12.8769130706787,1.18909025192261,-13.1592920353982,-12.8228206634521,1.29496383666992
375,-16.0869565217391,-12.6545696258545,1.07229125499725,-16.8850931677019,-13.5309658050537,1.16819405555725
376,-16.2350746268657,-14.0582122802734,1.24257576465607,-15.3246268656716,-13.8738021850586,1.18225288391113
377,-18.796178343949,-15.4174470901489,1.16064405441284,-13.3630573248408,-13.7464141845703,1.12756514549255
378,-15.9628252788104,-16.2100124359131,1.18424451351166,-5.61338289962825,-12.8690900802612,1.29999756813049
379,-15.9785714285714,-16.6119194030762,1.21869874000549,-17.075,-13.652232170105,1.04819762706757
380,-6.72794117647059,-14.7401180267334,1.04397356510162,-15.2904411764706,-13.3333024978638,1.28885436058044
381,-16.927797833935,-14.8786640167236,-0.339761257171631,-12.8050541516245,-12.8293867111206,0.96434211730957
382,-16.3106796116505,-14.3815641403198,1.10269975662231,-4.41747572815534,-11.0402708053589,1.04052460193634
383,-19.3344481605351,-15.0558881759644,0.683367431163788,-16.6655518394649,-13.2507047653198,1.22789466381073
384,-14,-14.660174369812,1.11704516410828,-20,-13.8357057571411,1.16495621204376
385,-16,-16.5145854949951,1.19217967987061,-14,-13.5776166915894,1.26340484619141
386,-17.3642611683849,-16.601879119873,0.849768400192261,-9.45017182130584,-12.9066410064697,1.27192139625549
387,-12.1449275362319,-15.7687273025513,1.16413927078247,-15.0760869565217,-15.0383625030518,1.19068276882172
388,-14.0190476190476,-14.7056474685669,1.34389209747314,-10.9238095238095,-13.8900127410889,0.909294366836548
389,-18.9384615384615,-15.6933393478394,1.29369282722473,-18.96,-13.6820125579834,1.12084019184113
390,-8,-14.0933399200439,1.15200448036194,-16,-14.082013130188,1.13141775131226
391,-20,-14.6204862594604,1.2009162902832,-10.5212355212355,-14.2962265014648,1.2275550365448
392,-13.4736842105263,-14.8862400054932,1.1869010925293,-19.3289473684211,-15.1467990875244,1.35341370105743
393,-14,-14.8824291229248,0.98193484544754,-11.9090909090909,-15.3438539505005,1.61743772029877
394,-10.6309963099631,-13.2209367752075,1.02858769893646,-18.2029520295203,-15.1924457550049,1.29341268539429
395,-14,-14.4209365844727,1.14077842235565,-14,-14.7924451828003,1.35619962215424
396,-18.2771084337349,-14.0763578414917,0.993231415748596,-16.4819277108434,-15.9845838546753,1.3461297750473
397,-17.0950704225352,-14.8006343841553,1.12318050861359,-18.9295774647887,-15.9047107696533,1.2362208366394
398,-14.2797202797203,-14.8565797805786,1.15177142620087,-14.4265734265734,-16.4082069396973,1.24711060523987
399,-16.5128205128205,-16.0329437255859,1.17839276790619,-7.54700854700855,-14.2770175933838,1.3050981760025
400,-15.8898071625344,-16.4109058380127,1.08665251731873,-14.6143250688705,-14.3998823165894,1.312375664711
401,-18.5642201834862,-16.4683265686035,0.278383821249008,-10.7477064220184,-13.2530384063721,0.745281338691711
402,-13.4950495049505,-15.7483234405518,1.22711706161499,-12.7029702970297,-12.0077171325684,1.32100439071655
403,-14,-15.6923799514771,1.19941937923431,-16,-12.3224020004272,1.29196965694427
404,-11.4566210045662,-14.6811399459839,1.26050531864166,-16.6849315068493,-14.1499862670898,1.1552482843399
405,-18.3734567901235,-15.1778697967529,1.27534782886505,-17.3765432098765,-14.702428817749,1.42232084274292
406,-16.4080882352941,-14.7466430664062,1.21740674972534,-22.5183823529412,-17.0565643310547,1.20350360870361
407,-6,-13.2476329803467,1.19208443164825,-16,-17.715970993042,1.34812188148499
408,-18.3930817610063,-14.1262493133545,1.08005368709564,-12.9276729559748,-17.101505279541,0.940178632736206
409,-10.9514170040486,-14.0252094268799,1.26415812969208,-16,-16.9645195007324,1.29931557178497
410,-20,-14.3505172729492,1.18222606182098,-13.250936329588,-16.1394004821777,1.16441905498505
411,-17.4347826086957,-14.5558567047119,1.23388993740082,-18.9378881987578,-15.4232997894287,1.34788203239441
412,-18.0516605166052,-16.9661884307861,1.02762937545776,-18.5350553505535,-15.9303112030029,1.3560117483139
413,-14.2248062015504,-16.1325340270996,1.04615354537964,-5.76744186046512,-14.4982652664185,1.45249354839325
414,-18,-17.5422496795654,1.0390533208847,-20,-15.2982654571533,1.28699660301208
415,-9.19741100323625,-15.3817319869995,0.973712563514709,-17.0647249190939,-16.0610237121582,1.37014257907867
416,-14.0091185410334,-14.6965990066528,1.06694495677948,-10.9118541033435,-14.4558153152466,1.29531478881836
417,-14.1417910447761,-13.9146251678467,1.11857926845551,-18.634328358209,-14.4756698608398,1.30363273620605
418,-18,-14.6696643829346,1.15085589885712,-14,-16.1221809387207,1.41126239299774
419,-20.1720430107527,-15.1040725708008,1.09814774990082,-6.15412186379928,-13.353006362915,1.34097325801849
420,-15.7761627906977,-16.4198226928711,1.17400324344635,-20.5436046511628,-14.0487804412842,1.28575336933136
421,-15.7067669172932,-16.7593517303467,0.647756934165955,-16.9624060150376,-15.2588911056519,-1.09804654121399
422,-6.08666666666667,-15.1483278274536,1.17491102218628,-7.42,-13.0160264968872,1.38785886764526
423,-21.5072463768116,-15.8497772216797,1.10347211360931,-16.4565217391304,-13.5073299407959,1.32112920284271
424,-16.6148409893993,-15.1383380889893,1.02664339542389,-11.8904593639576,-14.6545972824097,-0.446951776742935
425,-17.7457627118644,-15.5322570800781,1.20184671878815,-16.5966101694915,-13.8651990890503,1.63439583778381
426,-16.8188679245283,-15.7546768188477,1.26575565338135,-12.4075471698113,-12.9542284011841,1.29973518848419
427,-6,-15.7373447418213,1.24612951278687,-14,-14.270227432251,1.26632964611053
428,-11.3625,-13.7083950042725,1.11958956718445,-17.1083333333333,-14.4005908966064,1.36591100692749
429,-22.0932203389831,-14.8040714263916,1.0477249622345,-14.6016949152542,-14.9428377151489,1.46895778179169
430,-10,-13.2549180984497,1.09864866733551,-16,-14.8235149383545,1.44216156005859
431,-22.53264604811,-14.3976726531982,0.89537900686264,-11.0549828178694,-14.5530033111572,1.03460299968719
432,-14,-15.997673034668,1.10646569728851,-14,-14.5530033111572,1.33348548412323
433,-11.3617021276596,-15.9975128173828,1.09487807750702,-17.5744680851064,-14.6462297439575,1.48565483093262
434,-20.9441624365482,-15.7677021026611,1.10528218746185,-14.2233502538071,-14.5705595016479,1.33037853240967
435,-8,-15.3677015304565,1.26085245609283,-10,-13.3705596923828,1.35700476169586
436,-14.5137614678899,-13.7639255523682,1.18487977981567,-18,-14.7595643997192,1.45144534111023
437,-11.2915129151292,-13.2222270965576,1.20053958892822,-14.5129151291513,-14.8621473312378,1.4023802280426
438,-16.5988023952096,-14.2696475982666,1.23507392406464,-11.8323353293413,-13.7137203216553,1.40685510635376
439,-15.9582089552239,-13.2724580764771,1.09501731395721,-9.71940298507463,-12.8129301071167,1.21678590774536
440,-18,-15.2724580764771,1.29912376403809,-10,-12.8129301071167,1.29550290107727
441,-18,-15.969705581665,1.28468835353851,-14.8407079646018,-12.1810722351074,1.2623997926712
442,-13.3643410852713,-16.3842716217041,1.11913669109344,-8.33333333333333,-10.9451560974121,1.18029832839966
443,-19.1313672922252,-16.8907833099365,1.19360649585724,-17.1608579088472,-12.0108604431152,1.11477220058441
444,-10,-15.6991424560547,1.14657020568848,-16,-13.2669801712036,1.41654622554779
445,-14.6147859922179,-15.0220994949341,1.19504249095917,-18.7704280155642,-15.0210666656494,1.41659593582153
446,-14.1363636363636,-14.2493715286255,1.17961466312408,-18.4090909090909,-15.7347412109375,1.43382334709167
447,-16,-14.7765026092529,1.22998309135437,-8,-15.6680755615234,1.4139552116394
448,-15.8283261802575,-14.1158952713013,1.243732213974,-7.54077253218884,-13.7440586090088,1.42223179340363
449,-12.4814814814815,-14.6121921539307,1.22469580173492,-19.2222222222222,-14.3885021209717,1.44181978702545
450,-17.3439803439803,-15.1580305099487,1.21536350250244,-16.5208845208845,-13.9385938644409,1.51920676231384
451,-14.8151658767773,-15.2937908172607,1.17018938064575,-16.4691943127962,-13.5506153106689,1.09125483036041
452,-16.1433823529412,-15.3224668502808,1.21604716777802,-17.6985294117647,-15.4903202056885,1.24798119068146
453,-6,-13.3568019866943,1.21474695205688,-14,-16.7821655273438,1.41718673706055
454,-14.6593406593407,-13.7923736572266,1.11792194843292,-9.41391941391941,-14.8205051422119,1.50552022457123
455,-8,-11.9235782623291,1.18706595897675,-6,-12.7163286209106,1.33829975128174
456,-16.1375,-12.1880445480347,1.17091977596283,-20.7208333333333,-13.5666561126709,1.54611659049988
457,-19.056657223796,-12.7707004547119,1.10960841178894,-15.5042492917847,-13.127799987793,1.34567201137543
458,-24,-16.3707008361816,0.583069503307343,-12.945652173913,-12.9169311523438,-0.236407101154327
459,-13.4839857651246,-16.1356296539307,-0.0482132099568844,-13.6156583629893,-13.7572784423828,1.38501870632172
460,-12,-16.9356288909912,1.21399474143982,-12,-14.9572782516479,1.42548859119415
461,-16.3189964157706,-16.9719276428223,1.16402244567871,-9,-12.6131114959717,1.47757148742676
462,-12,-15.5605955123901,1.10115480422974,-16,-12.7122621536255,1.40353989601135
463,-11.3917910447761,-13.0389556884766,0.416300177574158,-12.4776119402985,-12.6186542510986,-0.563426971435547
464,-18.889400921659,-14.1200380325317,1.25650858879089,-7.12903225806452,-11.3213291168213,1.19979381561279
465,-9.0836820083682,-13.5367736816406,1.22674036026001,-13.6945606694561,-11.6602411270142,1.362464427948
466,-10,-12.2729749679565,1.24467670917511,-8,-11.460241317749,1.46632432937622
467,-19.2923976608187,-13.7314548492432,0.105128698050976,-16.9883040935673,-11.657901763916,-0.619856655597687
468,-18.2747252747253,-15.1080417633057,1.31823122501373,-20.3589743589744,-13.2341737747192,1.24679780006409
469,-11.0286738351254,-13.5358963012695,1.13434100151062,-13.1433691756272,-14.4370422363281,1.40606927871704
470,-11.1678832116788,-13.9527359008789,1.17841732501984,-11.6569343065693,-14.0295162200928,1.53498530387878
471,-22,-16.3527355194092,1.23302698135376,-14.7735191637631,-15.3842210769653,1.24215066432953
472,-16.2304347826087,-15.7403430938721,-0.140580773353577,-16,-15.186559677124,-0.463523328304291
473,-12.9074074074074,-14.6668796539307,1.12261354923248,-13.2777777777778,-13.7703199386597,1.50926184654236
474,-17.5225225225225,-15.9656496047974,1.33530187606812,-12.0495495495495,-13.5515565872192,1.63818693161011
475,-14.1421052631579,-16.5604934692383,1.22781896591187,-22,-15.6201686859131,1.42617475986481
476,-16.8927335640138,-15.539041519165,1.12875652313232,-13.4463667820069,-15.3547391891479,1.14297330379486
477,-15.15625,-15.3242034912109,1.20593702793121,-14.7447916666667,-15.1036968231201,1.3937623500824
478,-13.1111111111111,-15.3649444580078,1.27752995491028,-16.8333333333333,-15.8148069381714,1.05088710784912
479,-15.5014245014245,-14.9607238769531,1.46058058738708,-18.6552706552707,-17.1359519958496,0.941678822040558
480,-15.5708502024292,-15.2464723587036,1.11566495895386,-16.6518218623482,-16.0663185119629,0.737437546253204
481,-17.5564853556485,-15.3792238235474,1.40970957279205,-12.0585774058577,-15.7887601852417,1.54063272476196
482,-16.1911764705882,-15.5862092971802,1.06277251243591,-15.7205882352941,-15.9839200973511,1.32302463054657
483,-13.2777777777778,-15.6195430755615,1.0916713476181,-12.7649572649573,-15.1702423095703,0.667434334754944
484,-16.2795275590551,-15.775164604187,1.32580232620239,-15.8779527559055,-14.6147794723511,1.44960129261017
485,-13.5567010309278,-15.3723344802856,0.494126945734024,-9.06872852233677,-13.0981616973877,-0.0725389719009399
486,-16.2530864197531,-15.1116542816162,1.05326926708221,-18.2530864197531,-14.337061882019,1.18880796432495
487,-11,-14.0734195709229,1.17196333408356,-1.07894736842105,-11.4087352752686,1.12129187583923
488,-14,-14.2178630828857,1.27572202682495,-8.06130268199234,-10.4680042266846,1.37835931777954
489,-10.4685314685315,-13.0556640625,1.19205403327942,-12.3041958041958,-9.75325202941895,1.17913174629211
490,-18.044289044289,-13.9531812667847,1.10249304771423,-19.1235431235431,-11.7642154693604,1.13863694667816
491,-14.6747720364742,-13.6375179290771,1.11301779747009,-8.25835866261398,-9.76526927947998,1.34332025051117
492,-10.5485232067511,-13.5472230911255,1.13608241081238,-19.253164556962,-13.4001131057739,1.46070241928101
493,-7.90847457627119,-12.3289184570312,0.930798649787903,-12.2271186440678,-14.2332763671875,1.43496906757355
494,-9.98666666666667,-12.2325458526611,1.25446057319641,-20.8177777777778,-15.9359922409058,1.39902889728546
495,-10.6831275720165,-10.7603130340576,1.24540269374847,-17.1316872427984,-15.5376224517822,0.924874544143677
496,-4,-8.62535858154297,1.27458071708679,-10,-15.885950088501,1.27208817005157
497,-12.9090909090909,-9.09747219085693,1.0485874414444,-18,-15.6353178024292,1.25412392616272
498,-14.6867469879518,-10.4531269073486,1.08978199958801,-16.8433734939759,-16.5585689544678,1.48444449901581
499,-16,-11.6557941436768,1.1691563129425,-13.5525114155251,-15.1055145263672,1.46576166152954
500,-8.56709956709957,-11.2325878143311,1.21294057369232,-17.1341991341991,-15.1060180664062,1.58987963199615
501,-9.27234042553192,-12.2870559692383,1.22056150436401,-14.5744680851064,-16.0209102630615,1.32201063632965
502,-14.0941704035874,-12.5240726470947,1.29821383953094,-14.7309417040359,-15.3670988082886,1.38904523849487
503,-13.9143968871595,-12.3696022033691,-0.0871693938970566,-16.3696498054475,-15.2723541259766,-0.668225646018982
504,-6.30833333333333,-10.4312686920166,1.27396929264069,-10.0708333333333,-14.5760173797607,1.35068690776825
505,-9.46638655462185,-10.6111268997192,1.14709103107452,-11.6344537815126,-13.4760684967041,1.35637414455414
506,-14.6861538461538,-11.6938886642456,1.06494164466858,-15.9107692307692,-13.7433290481567,1.52875304222107
507,-18.6483790523691,-12.6047306060791,-0.528301417827606,-6.69825436408978,-12.1367921829224,-0.825241327285767
508,-10.0294117647059,-11.827733039856,1.02412760257721,-14.4362745098039,-11.7501173019409,1.40982377529144
509,-15.0555555555556,-13.5771770477295,0.940083026885986,-13.1339869281046,-12.3627481460571,1.6926429271698
510,-10,-13.6839008331299,1.04841232299805,-12,-12.4358577728271,1.43697619438171
511,-11.8284789644013,-13.1123638153076,0.734845578670502,-17.8284789644013,-12.8193998336792,1.38097405433655
512,-8.19607843137255,-11.0219049453735,1.30249667167664,-17.1862745098039,-14.9170045852661,1.51356554031372
513,-11.910447761194,-11.3981122970581,1.13993787765503,-14.3432835820896,-14.8984050750732,1.40107774734497
514,-9.8801261829653,-10.3630266189575,1.16047704219818,-16.4258675078864,-15.5567808151245,1.67167437076569
515,-19.2564102564103,-12.2143077850342,1.08510935306549,-6.3034188034188,-14.4174652099609,1.47296607494354
516,-14,-12.6486129760742,0.995696127414703,-6,-12.0517673492432,1.37635326385498
517,-12.2843450479233,-13.4662656784058,0.940651893615723,-11.4600638977636,-10.9065265655518,1.38666832447052
518,-12,-13.4841766357422,1.25983428955078,-8,-9.6378698348999,1.47710824012756
519,-16.7674418604651,-14.8616390228271,1.31591963768005,-11.077519379845,-8.56820011138916,1.37886035442352
520,-10.9159663865546,-13.1935520172119,-0.492562234401703,-14.4621848739496,-10.1999530792236,-0.787207722663879
521,-13.672268907563,-13.1280031204224,1.20585894584656,-10.9411764705882,-11.1881885528564,1.36972320079803
522,-14,-13.4711360931396,1.31402885913849,-12,-11.2961759567261,1.41639173030853
523,-8,-12.6711359024048,1.23756396770477,-8,-11.2961759567261,1.56386923789978
524,-14.8298755186722,-12.2836217880249,1.22838377952576,-10.4979253112033,-11.1802577972412,1.54364824295044
525,-20,-14.1004285812378,1.23507130146027,-7.08928571428572,-9.70567798614502,1.47600066661835
526,-15.3333333333333,-14.4326419830322,1.22236859798431,-10.6124031007752,-9.63992309570312,1.52667546272278
527,-10.1883561643836,-13.6703128814697,1.12440240383148,-20.8732876712329,-11.4145803451538,1.34231066703796
528,-10.8076923076923,-14.2318515777588,0.493760049343109,-15.599358974359,-12.9344511032104,-0.817852318286896
529,-9.66666666666667,-13.1992092132568,1.35903239250183,-14.2908496732026,-13.6930370330811,1.52068281173706
530,-12.2191358024691,-11.6430377960205,1.28485465049744,-6.70679012345679,-13.6165370941162,1.59623730182648
531,-16.5866666666667,-11.8937034606934,1.11418402194977,-9.32,-13.3580570220947,1.25053453445435
532,-16.256,-13.1072330474854,0.991702079772949,-16.736,-12.5305995941162,1.37463784217834
533,-19.0653594771242,-14.7587661743164,1.10169887542725,-20.202614379085,-13.4512500762939,1.43021786212921
534,-12,-15.2254333496094,1.30386459827423,-14,-13.3930797576904,1.44459354877472
535,-12,-15.1816053390503,1.26470255851746,-6,-13.2517223358154,1.42122197151184
536,-20,-15.8642711639404,1.25566351413727,-14.0276679841897,-14.1932554244995,1.38612592220306
537,-8.58333333333333,-14.329737663269,1.11068379878998,-11.75,-13.1960573196411,1.42394769191742
538,-11.0504201680672,-12.7267503738403,1.1291196346283,-13.3571428571429,-11.8269624710083,1.19476389884949
539,-16.7005988023952,-13.6668701171875,1.22425782680511,-18.748502994012,-12.7766628265381,1.47805714607239
540,-6,-12.4668703079224,1.2703583240509,-12,-13.9766635894775,1.69612288475037
541,-16.366935483871,-11.7402572631836,0.125392466783524,-16.2298387096774,-14.4170970916748,-1.03933036327362
542,-11.5147058823529,-12.3265323638916,1.37836408615112,-12.7794117647059,-14.6229801177979,1.76148056983948
543,-14.4285714285714,-13.0021619796753,0.620162010192871,-16.465306122449,-15.2446117401123,1.46163558959961
544,-14.9465648854962,-12.6513547897339,1.29338455200195,-15.793893129771,-14.6536893844604,1.28893280029297
545,-8,-13.0513553619385,1.2977876663208,-12,-14.6536893844604,1.56437849998474
546,-18,-13.3779678344727,1.22157764434814,-8.48484848484848,-13.1046905517578,1.63022065162659
547,-13.0173410404624,-13.6784954071045,1.28884065151215,-16.8843930635838,-13.925687789917,1.49432682991028
548,-20,-14.7927808761597,1.28010284900665,-12.8466257668712,-13.2019519805908,1.3581041097641
549,-11.8141592920354,-14.1662998199463,1.524050116539,-16.0176991150442,-13.2467136383057,1.15943074226379
550,-12,-14.9662990570068,1.22367882728577,-16.5,-14.1467132568359,1.46066451072693
551,-16,-14.5662994384766,1.28637444972992,-12.3137254901961,-14.9124889373779,1.4312629699707
552,-13.5294117647059,-14.6687135696411,0.388205945491791,-14.7058823529412,-14.4767866134644,-0.444603323936462
553,-12,-13.0687131881714,1.30635035037994,-18,-15.5074615478516,1.48717832565308
554,-7.76221498371335,-12.2583255767822,1.17732763290405,-9.17263843648209,-14.13844871521,1.49079477787018
555,-18.3698630136986,-13.5322980880737,1.4318060874939,-15.6164383561644,-13.9617366790771,1.10524594783783
556,-16.809968847352,-13.6942920684814,1.21880996227264,-8.5607476635514,-13.2111415863037,1.48453295230865
557,-6,-12.1884098052979,1.3452752828598,-8,-11.8699645996094,1.49736821651459
558,-12.0598290598291,-12.2003755569458,-0.387433171272278,-18.7606837606838,-12.022102355957,-0.524141907691956
559,-13,-13.247932434082,0.979798436164856,-9.10313901345291,-12.0082015991211,1.31284976005554
560,-19.2222222222222,-13.4184036254883,1.19312036037445,-14.5833333333333,-11.8015804290771,1.23706936836243
561,-12.9084967320261,-12.6381092071533,1.29872763156891,-20,-14.0894298553467,0.353534042835236
562,-14.4465648854962,-14.3274230957031,1.31821370124817,-10.4847328244275,-14.5863771438599,1.50248968601227
563,-5.10666666666667,-12.93678855896,1.1859964132309,-8.86666666666667,-12.6075744628906,1.7051807641983
564,-16.9344262295082,-13.7236757278442,0.612606227397919,-16.1311475409836,-14.0131778717041,-0.408925950527191
565,-12.2831325301205,-12.3358564376831,1.21123838424683,-11.6987951807229,-13.4362697601318,1.27812814712524
566,-20.5672131147541,-13.8676013946533,1.25155317783356,-14.4,-12.3162679672241,1.36059772968292
567,-19.0537634408602,-14.789041519165,1.32947874069214,-15.1801075268817,-13.2553434371948,1.34606111049652
568,-10,-15.767707824707,1.30485844612122,-6,-12.6820106506348,1.26405799388885
569,-12.7556270096463,-14.9319477081299,1.00741195678711,-10.5594855305466,-11.5676784515381,1.6411052942276
570,-11.5218855218855,-14.7796983718872,1.07312488555908,-16.5824915824916,-12.5444164276123,1.4631222486496
571,-11.1902834008097,-12.9043121337891,1.12728679180145,-8.21457489878543,-11.3073320388794,1.3619236946106
572,-11.8571428571429,-11.4649868011475,1.11369132995605,-13.6013289036545,-10.9915752410889,1.14673495292664
573,-17.3675889328063,-12.9385051727295,1.3444356918335,-11.2371541501976,-12.0390062332153,0.596359431743622
574,-20.4092827004219,-14.4692363739014,1.17122316360474,-6.62447257383966,-11.2520036697388,1.34431028366089
575,-12,-14.5648593902588,1.24994504451752,-17.3,-11.3955059051514,1.48531007766724
576,-16.2885906040268,-15.5845212936401,1.21991348266602,-18.9328859060403,-13.5391693115234,1.30680906772614
577,-10,-15.2130918502808,1.32196259498596,-4,-11.6189022064209,1.47898125648499
578,-16.958041958042,-15.1311826705933,1.10676348209381,-10.1818181818182,-11.4078350067139,1.41776251792908
579,-15.1716738197425,-14.0836610794067,1.2097020149231,-12.5579399141631,-12.5945291519165,1.46851372718811
580,-12,-14.0836610794067,1.32243740558624,-10,-11.1345291137695,1.51940822601318
581,-14,-13.6259431838989,1.22416400909424,-14.2222222222222,-10.1923961639404,1.35545432567596
582,-10,-13.6259431838989,1.31617867946625,-8,-10.992395401001,1.50006949901581
583,-18.1974921630094,-13.8738346099854,1.1962456703186,-14.4827586206897,-11.8525829315186,1.43570041656494
584,-14.9328358208955,-13.8260650634766,1.19171154499054,-13.0746268656716,-11.9559211730957,1.33889138698578
585,-14,-14.2260646820068,1.38968968391418,-14,-12.7559213638306,1.57986652851105
586,-13.1781609195402,-14.0616970062256,-0.50510847568512,-10.948275862069,-12.1011323928833,-0.824709594249725
587,-16.1032863849765,-15.2823543548584,-0.335970789194107,-14.2910798122066,-13.3593473434448,-0.229531317949295
588,-8.67109634551495,-13.3770751953125,1.31475901603699,-15.734219269103,-13.60964012146,1.60638236999512
589,-16.0301204819277,-13.5965328216553,1.34764158725739,-20,-14.9947147369385,1.56881010532379
590,-8,-12.3965330123901,1.36677992343903,-12,-14.5947141647339,1.61247944831848
591,-18,-13.3609008789062,1.20826721191406,-14.8958333333333,-15.3842258453369,1.57120144367218
592,-14.966966966967,-13.1336364746094,-0.10801950097084,-3.21921921921922,-13.1698551177979,0.205386772751808
593,-3.34385964912281,-12.0681896209717,-0.587915241718292,-9.90526315789474,-12.0040626525879,-0.357047200202942
594,-4,-9.66216468811035,1.33841550350189,-18,-11.6040630340576,1.57105398178101
595,-14,-10.8621654510498,1.30278825759888,-18,-12.8040618896484,1.61861741542816
596,-9.13986013986014,-9.09013748168945,1.34431350231171,-16.951048951049,-13.215106010437,1.50361895561218
597,-8,-7.69674396514893,1.35736644268036,-14,-15.3712615966797,1.5820928812027
598,-12.662962962963,-9.5605640411377,1.15297019481659,-12.9592592592593,-15.9820613861084,1.58759462833405
599,-11.3791946308725,-11.0364027023315,1.31918811798096,-17.5402684563758,-15.890115737915,1.73304653167725
600,-7.10483870967742,-9.65737056732178,1.33368027210236,-16.6290322580645,-15.6159210205078,1.42768836021423
601,-20.5590778097983,-11.9412145614624,1.33310234546661,-16.8443804034582,-15.5945892333984,1.48664546012878
602,-16.9241192411924,-13.7260389328003,1.03578102588654,-22,-17.1945896148682,1.67674517631531
603,-8,-12.7934474945068,1.28137159347534,-10,-16.6027374267578,1.69651854038239
604,-14.4761904761905,-13.4128446578979,0.65008533000946,-12.4880952380952,-15.5923023223877,1.65697455406189
605,-8,-13.5918779373169,1.3226078748703,-14,-15.0664949417114,1.54239296913147
606,-14.7931034482759,-12.4386825561523,0.3123619556427,-13.4965517241379,-14.3969297409058,1.47580885887146
607,-18.479674796748,-12.7497940063477,0.867806553840637,-15.1951219512195,-13.0359525680542,1.50720739364624
608,-12,-13.5497941970825,0.756304323673248,-14.1149425287356,-13.8589420318604,1.39252233505249
609,-15.5307917888563,-13.7607145309448,1.23566842079163,-18.8064516129032,-15.1226139068604,1.48276996612549
610,-12,-14.5607147216797,1.29489541053772,-12,-14.7226133346558,1.66422986984253
611,-20.3796296296296,-15.6780195236206,0.0825907364487648,-9.3179012345679,-13.8868837356567,-0.218076884746552
612,-14,-14.7820844650269,1.39435875415802,-12,-13.2478590011597,1.57226085662842
613,-18,-15.982084274292,-0.229467451572418,-17.2539682539683,-13.8756637573242,1.18870186805725
614,-14.2701149425287,-15.7299499511719,1.03360545635223,-15.2873563218391,-13.1718444824219,1.44663643836975
615,-8.29651162790698,-14.9892520904541,0.350422620773315,-17.2383720930233,-14.219518661499,-0.79508364200592
616,-18,-14.5133237838745,1.11526584625244,-10,-14.355938911438,1.49785721302032
617,-18.4108527131783,-15.3954954147339,0.983140826225281,-10.0542635658915,-13.9667940139771,1.4716557264328
618,-13.1276595744681,-14.4210262298584,1.06480312347412,-9.46808510638298,-12.4096164703369,1.28452932834625
619,-18.3657407407407,-15.2401523590088,0.411592394113541,-19.5092592592593,-13.2539958953857,-1.02152121067047
620,-11.256345177665,-15.8321199417114,0.13781850039959,-12.4670050761421,-12.2997226715088,-0.444288104772568
621,-16.9186991869919,-15.6158599853516,0.446572840213776,-12.3008130081301,-12.7598848342896,-0.549531817436218
622,-10.8429487179487,-14.1022796630859,0.558729290962219,-19.0641025641026,-14.5618534088135,-0.724224388599396
623,-12.7033333333333,-14.0174131393433,1.20613205432892,-11.71,-15.010235786438,1.20378232002258
624,-12.8719346049046,-12.9186525344849,-0.159195825457573,-13.291553133515,-13.766695022583,0.767936050891876
625,-14.9399399399399,-13.6553707122803,1.0201131105423,-22.4684684684685,-15.7669858932495,0.99143773317337
626,-17.2932551319648,-13.7302827835083,-0.0403134971857071,-14.8240469208211,-16.2716331481934,0.914397537708282
627,-14.7252747252747,-14.5067472457886,1.00714242458344,-9.16483516483517,-14.2917814254761,1.58478164672852
628,-18.7887323943662,-15.7238283157349,0.16510783135891,-14.4929577464789,-14.8483734130859,1.28890359401703
629,-10.264,-15.202241897583,0.379135072231293,-12.176,-14.625262260437,1.09766376018524
630,-10,-14.2142534255981,1.18371343612671,-10.739837398374,-12.2795352935791,0.757175445556641
631,-13.8551724137931,-13.5266361236572,1.01013600826263,-11.0689655172414,-11.5285196304321,0.871373057365417
632,-11.3464052287582,-12.8508625030518,0.828498959541321,-12.8039215686275,-12.2563362121582,1.09526014328003
633,-11.4668769716088,-11.3864908218384,1.27316606044769,-14.4321766561514,-12.244179725647,-0.397727519273758
634,-18.737532808399,-13.0811977386475,1.0089418888092,-2.33070866141732,-10.2751216888428,1.59232032299042
635,-13.6935483870968,-13.8199062347412,0.999189257621765,-10.1612903225806,-10.1594114303589,1.6250935792923
636,-11.7969696969697,-13.4082670211792,0.768499970436096,-16.7939393939394,-11.304407119751,1.39754509925842
637,-6.34042553191489,-12.4070711135864,1.21995961666107,-16,-11.943621635437,1.12680530548096
638,-11.6747967479675,-12.4486541748047,1.14020645618439,-11.5121951219512,-11.3596258163452,1.18520998954773
639,-10.5454545454545,-10.8102388381958,0.762905359268188,-15.974025974026,-14.0882902145386,0.235785111784935
640,-11.937106918239,-10.4589509963989,0.015812560915947,-15.6037735849057,-15.1767864227295,-0.398697018623352
641,-11.9106382978723,-10.4816846847534,0.879827380180359,-17.0851063829787,-15.2350206375122,1.30765700340271
642,-22.0827814569536,-13.6301555633545,-0.596581101417542,-18.3476821192053,-15.7045564651489,-0.699125707149506
643,-12.0040816326531,-13.6960124969482,0.421450287103653,-18.7510204081633,-17.152322769165,-0.00974258780479431
644,-20.5439739413681,-15.6957149505615,0.183014079928398,-15.0651465798046,-16.9705467224121,-0.287473917007446
645,-8.26854219948849,-14.9620027542114,0.679672360420227,-15.5447570332481,-16.9587421417236,1.33930802345276
646,-8,-14.1798753738403,1.48564600944519,-12,-15.9417209625244,1.87849283218384
647,-15.4212454212454,-12.8475675582886,0.347247719764709,-7.02930402930403,-13.6780452728271,-0.838422417640686
648,-12.2768166089965,-12.9021148681641,1.00263571739197,-15.1695501730104,-12.9617509841919,1.29006254673004
649,-8.36193029490617,-10.4657077789307,1.56608402729034,-11.7292225201072,-12.29456615448,1.57794725894928
650,-16,-12.011999130249,1.31344079971313,-14.1545064377682,-12.0165157318115,1.41698884963989
651,-13.7159090909091,-13.155179977417,0.344755709171295,-15.7130681818182,-12.7591304779053,0.779040455818176
652,-17.2066666666667,-13.5122652053833,0.785923063755035,-14.4866666666667,-14.250602722168,-0.634768128395081
653,-17.7658402203857,-14.6100692749023,-0.382765620946884,-17.9641873278237,-14.8095302581787,-1.14925849437714
654,-17.3558282208589,-16.4088478088379,0.0190164595842361,-16.2453987730061,-15.7127656936646,-0.503222286701202
655,-14.7,-16.1488475799561,1.30194783210754,-13.2675,-15.535364151001,1.59755861759186
656,-11.1570680628272,-15.6370801925659,1.30917966365814,-18.7853403141361,-16.1498203277588,1.51876282691956
657,-13.8837209302326,-14.9724912643433,1.38924598693848,-18.7529069767442,-17.0030670166016,1.75977468490601
658,-20.2244318181818,-15.4642086029053,-0.311896920204163,-13.8863636363636,-16.1875038146973,0.232950210571289
659,-18.4618055555556,-15.6854047775269,-0.18064421415329,-18.6458333333333,-16.6675891876221,-0.255100905895233
660,-20,-16.7454051971436,1.41714203357697,-12,-16.4140892028809,1.5049535036087
661,-10.7652733118971,-16.6670475006104,0.449345856904984,-16.5691318327974,-15.9708461761475,-0.650885701179504
662,-9.75528700906344,-15.8413600921631,0.265644073486328,-15.5166163141994,-15.3235883712769,-0.490457832813263
663,-16.5757575757576,-15.1116256713867,-0.319334328174591,-15.7151515151515,-15.6893463134766,-0.81050169467926
664,-13.1714285714286,-14.0535488128662,0.134534239768982,-18.6428571428571,-15.6887512207031,0.855017423629761
665,-11.3285714285714,-12.3192644119263,1.38075852394104,-9.4,-15.1687517166138,1.64896833896637
666,-6,-11.3662090301514,1.53411114215851,-18,-15.4549255371094,1.7704268693924
667,-11.2036199095023,-11.655876159668,0.775523841381073,-0.669683257918552,-12.4855375289917,1.02556300163269
668,-8,-9.94072437286377,1.48247337341309,-12,-11.7425079345703,1.75823783874512
669,-8.80213903743316,-9.06686592102051,1.22433614730835,-16.572192513369,-11.3283748626709,1.17289841175079
670,-10.7142857142857,-8.94400978088379,1.44645202159882,-14.8742857142857,-12.4232320785522,1.67786812782288
671,-11.0735294117647,-9.95871543884277,0.829894006252289,-16.8051470588235,-12.1842622756958,-0.589552462100983
672,-8,-9.31799125671387,1.34591245651245,-6,-13.2503252029419,1.54261040687561
673,-6,-8.91799068450928,1.35761570930481,-16,-14.0503253936768,1.61863815784454
674,-12.7348993288591,-9.70454216003418,1.15670943260193,-14.261744966443,-13.5882358551025,0.919285297393799
675,-13.093896713615,-10.1804637908936,1.28295302391052,-8.71830985915493,-12.3570404052734,1.50273883342743
676,-20.2803738317757,-12.0218334197998,1.20394539833069,-16.2803738317757,-12.25208568573,1.42381906509399
677,-9.36585365853658,-12.2950038909912,0.926208019256592,-15.3031358885017,-14.1127138137817,-0.0321071185171604
678,-11.8737201365188,-13.4697494506836,1.24623131752014,-21.6143344709898,-15.2355785369873,1.63612961769104
679,-16.986301369863,-14.3200302124023,1.21561408042908,-13.2602739726027,-15.035285949707,1.55502331256866
680,-10.5017064846416,-13.8015918731689,1.3337961435318,-5.83959044368601,-14.4595432281494,1.43408215045929
681,-15.8522427440633,-12.9159650802612,1.35412991046906,-17.3245382585752,-14.6683750152588,1.28246378898621
682,-16.8501872659176,-14.4128313064575,1.02256882190704,-15.749063670412,-14.7575607299805,1.14902997016907
683,-13.2135231316726,-14.6807918548584,0.278218120336533,-10.5978647686833,-12.5542659759521,-1.65443861484528
684,-8,-12.8835325241089,1.46791684627533,-6,-11.1022119522095,1.6949325799942
685,-12,-13.1831912994385,1.4761518239975,-4,-10.7342929840088,1.57784521579742
686,-13.5932203389831,-12.7313861846924,0.215405851602554,-8.16949152542373,-8.90328407287598,0.89734297990799
687,-17.9456193353474,-12.9504728317261,1.52664268016815,-11.9456193353474,-8.1425952911377,1.64582228660583
688,-10.8691588785047,-12.4815998077393,1.35825502872467,-11.5264797507788,-8.32831859588623,1.70749807357788
689,-13.6881720430108,-13.6192350387573,1.27042198181152,-18,-10.7283191680908,1.38226103782654
690,-10,-13.2192354202271,1.49067544937134,-12,-12.3283185958862,1.70518219470978
691,-12.8881578947368,-13.0782222747803,1.2324253320694,-16.3848684210526,-13.9713926315308,0.442834436893463
692,-13.163179916318,-12.1217336654663,0.467928171157837,-8.7489539748954,-13.3320598602295,1.32856130599976
693,-15.0430107526882,-12.9565029144287,0.993552923202515,-12.3154121863799,-13.4898471832275,0.991582989692688
694,-16.4920634920635,-13.5172824859619,-0.457387834787369,-20.6825396825397,-14.0263547897339,-1.01799416542053
695,-12,-13.9172821044922,1.39565098285675,-10,-13.6263551712036,1.54295539855957
696,-3.99354838709677,-12.1383609771729,0.150049149990082,-14.658064516129,-13.2809934616089,0.0233246833086014
697,-12.878892733564,-12.0815029144287,1.5427451133728,-12.6297577854671,-14.0571546554565,1.67387759685516
698,-13.4117647058824,-11.7552537918091,1.17476534843445,-17.4463667820069,-15.0833463668823,1.77236115932465
699,-17.1174934725849,-11.8803396224976,1.19988429546356,-15.088772845953,-13.9645938873291,1.69812762737274
700,-16.1279069767442,-12.7059211730957,1.33355021476746,-13.4825581395349,-14.6611042022705,2.05343580245972
701,-9.95381062355658,-13.8979740142822,0.40570479631424,-14.2540415704388,-14.5802993774414,0.0243101716041565
702,-14.6779661016949,-14.2577877044678,0.197586968541145,-17.8813559322034,-15.6306200027466,-0.789948642253876
703,-14,-14.3754348754883,1.26217973232269,-14,-14.9413452148438,1.75946223735809
704,-15.2586750788644,-14.0036716461182,0.833030700683594,-17.4668769716088,-15.4169664382935,1.14763820171356
705,-9.2814371257485,-12.6343774795532,1.04100477695465,-10.2664670658683,-14.7737483978271,0.532764852046967
706,-13.5583596214511,-13.3552875518799,-0.000513041391968727,-12.6845425867508,-14.4598484039307,-1.05942702293396
707,-14,-13.2196931838989,1.31560301780701,-2,-11.2835779190063,1.63129580020905
708,-14.7142857142857,-13.3625516891479,0.803608596324921,-10.2285714285714,-10.5292911529541,1.18841326236725
709,-14.3060240963855,-13.1720218658447,0.856993675231934,-4.11325301204819,-7.858567237854,-0.105980217456818
710,-12.3459915611814,-13.7849321365356,1.14702320098877,-8.40928270042194,-7.4871301651001,1.62604022026062
711,-12.9725609756098,-13.6677732467651,1.04070961475372,-13.7042682926829,-7.69107532501221,1.63005685806274
712,-14.9293286219081,-13.8536396026611,1.19568777084351,-16.1060070671378,-10.5122776031494,1.84281611442566
713,-15.314465408805,-13.9736738204956,1.21852004528046,-22.6918238993711,-13.0049266815186,1.89880609512329
714,-16.815625,-14.4755935668945,0.4122174680233,-1.496875,-12.4816513061523,1.05108499526978
715,-15.5076923076923,-15.1079349517822,1.28135395050049,-15.2246153846154,-13.8447170257568,1.38085234165192
716,-17.003717472119,-15.9141664505005,1.25726330280304,-18.2788104089219,-14.7596263885498,1.63105976581573
717,-10.5379537953795,-15.0358905792236,1.28241372108459,-11.3399339933993,-13.8064117431641,1.13942122459412
718,-8,-13.572998046875,1.71030294895172,-18,-12.8680467605591,1.32909071445465
719,-11.7809187279152,-12.5660572052002,1.52154076099396,-3.49469964664311,-13.2676115036011,1.5519552230835
720,-9.353125,-11.3351421356201,0.651694357395172,-12.25,-12.6726894378662,1.19417142868042
721,-14.5665634674923,-10.8477115631104,1.10344910621643,-20,-13.0169277191162,1.02826023101807
722,-20.8131147540984,-12.9027433395386,1.64188861846924,-15.5377049180328,-13.856481552124,1.36377775669098
723,-17.4517906336088,-14.7931032180786,0.438251197338104,-17.4545454545455,-13.7473907470703,0.988474726676941
724,-16.6762820512821,-15.7721757888794,1.22193706035614,-17.5737179487179,-16.5631923675537,1.5167418718338
725,-14.2865671641791,-16.7588634490967,1.30653417110443,-17.2179104477612,-17.5567741394043,0.666430234909058
726,-13.6418732782369,-16.5739250183105,1.58977782726288,-9.05509641873278,-15.3677949905396,1.79091942310333
727,-12,-14.8113021850586,1.42837882041931,-12,-14.6602535247803,1.09811770915985
728,-12.8259385665529,-13.8861331939697,0.028398834168911,-7.25255972696246,-12.6198558807373,1.63195776939392
729,-3.68489583333333,-11.2878551483154,0.861767053604126,-11.0520833333333,-11.3155298233032,0.328840881586075
730,-14,-11.230541229248,1.51072180271149,-12,-10.2719478607178,1.35387063026428
731,-15.1685393258427,-11.5358743667603,1.62545418739319,-10.2434456928839,-10.509617805481,1.49575614929199
732,-8,-10.7358741760254,1.52225279808044,-18,-11.7096176147461,2.23312640190125
733,-11.0203389830508,-10.3747539520264,0.498687207698822,-12.6610169491525,-12.7913093566895,1.85669124126434
734,-14.3641160949868,-12.5105991363525,1.58144545555115,-17.5224274406332,-14.0853786468506,1.36114513874054
735,-8,-11.3105983734131,1.4248514175415,-12,-14.0853786468506,1.92058265209198
736,-20.0994152046784,-12.2967739105225,1.63564944267273,-10.6900584795322,-14.1747007369995,0.931466162204742
737,-16.996632996633,-14.0960998535156,1.59229099750519,-3.1043771043771,-11.1955757141113,1.18503129482269
738,-10.8033707865169,-14.0527067184448,0.503920555114746,-18,-12.2633724212646,-0.184781327843666
739,-9.56,-13.0918836593628,1.31146693229675,-13.04,-11.3668870925903,1.39180183410645
740,-14,-14.2918834686279,1.52311015129089,-10,-10.9668865203857,1.30598843097687
741,-18.4756944444444,-13.9671401977539,1.36315083503723,-11.8402777777778,-11.1969318389893,0.596919536590576
742,-16.6632996632997,-13.9004726409912,-0.13626603782177,-8.49494949494949,-12.2750453948975,0.0370326042175293
743,-8.56372549019608,-13.452543258667,0.835026860237122,-14.7058823529412,-11.6162223815918,0.768739759922028
744,0,-11.5405435562134,1.50186491012573,-8,-10.6082220077515,1.56761717796326
745,-14.7416020671835,-11.6888637542725,1.49680626392365,-15.093023255814,-11.6268262863159,1.31841731071472
746,-14.3286908077994,-10.8594636917114,1.35998916625977,-17.0612813370474,-12.6710262298584,1.50565600395203
747,-18,-11.1268033981323,1.48938322067261,-16,-14.1720371246338,1.76183450222015
748,-13.489847715736,-12.1120281219482,0.438649833202362,-11.0507614213198,-13.4410123825073,-0.167011171579361
749,-9.40531561461794,-13.9930906295776,0.300582081079483,-2.96677740863787,-12.4343690872192,0.722398042678833
750,-14.978354978355,-14.0404415130615,1.08290255069733,-10.025974025974,-11.4209585189819,1.32796967029572
751,-16.0850439882698,-14.391713142395,0.743804335594177,-13.9677419354839,-10.8022518157959,2.11280274391174
752,-13.3731778425656,-13.4663486480713,1.63185465335846,-14.0583090379009,-10.4139127731323,1.58880937099457
753,2,-10.3683786392212,1.50028729438782,-8,-9.80376052856445,1.59372138977051
754,-12.3827160493827,-10.9638586044312,1.48176443576813,-12.3024691358025,-11.6708993911743,1.36705899238586
755,-14,-10.7681875228882,1.45405185222626,-12,-12.0657043457031,1.56235086917877
756,-11.0817307692308,-9.76752471923828,1.59942090511322,-6.50480769230769,-10.5731172561646,1.67018353939056
757,-17,-10.4928894042969,0.719617545604706,-17.2147651006711,-11.2044086456299,-0.207449823617935
758,-19,-14.692889213562,1.56324172019958,-11.4539007092199,-11.8951892852783,1.59860634803772
759,-4.35119047619048,-13.0865840911865,1.5711715221405,-6.58928571428571,-10.7525520324707,1.54010939598083
760,-14,-13.0865840911865,1.40071713924408,-4,-9.15255165100098,1.60028076171875
761,-16.4972375690608,-14.1696853637695,-0.138523370027542,-12.4917127071823,-10.3499326705933,-0.654265403747559
762,-4,-11.5696849822998,1.35153245925903,-6,-8.1069803237915,1.5752112865448
763,-12.3888888888889,-10.2474641799927,-0.238766610622406,-15.3271604938272,-8.88163185119629,-0.698463380336761
764,-13.166163141994,-12.0104579925537,1.22774767875671,-15.3141993957704,-10.6266145706177,1.53511023521423
765,-8.33101045296167,-10.8766603469849,0.942399322986603,-9.41811846689895,-11.7102375030518,1.08036994934082
766,-8,-9.17721271514893,1.48829472064972,-10,-11.2118949890137,1.65233087539673
767,-11,-10.5772123336792,0.33265233039856,-6.25925925925926,-11.263747215271,0.13491302728653
768,-11.1859296482412,-10.3366212844849,1.47111654281616,-10.6884422110553,-10.3360042572021,1.6869785785675
769,-14.5,-10.6033878326416,1.23466265201569,-4.13372093023256,-8.09990787506104,1.5744297504425
770,-6.21808510638298,-10.1808032989502,1.63708245754242,-7.32446808510638,-7.68117761611938,1.53084778785706
771,-17,-11.9808025360107,1.36533844470978,-12.7709359605911,-8.23536491394043,1.60643553733826
772,-16.6825396825397,-13.1173114776611,1.53524470329285,-16.3968253968254,-10.2628784179688,1.54720330238342
773,-11.5543071161049,-13.1909866333008,1.45507955551147,-13.6516853932584,-10.8555278778076,1.472776055336
774,-13.5106382978723,-12.9931135177612,0.579186081886292,-13.258358662614,-12.6804552078247,-0.980913043022156
775,-15.7969348659004,-14.9088840484619,1.57194066047668,-17.27969348659,-14.6714992523193,1.6302387714386
776,-13.7808219178082,-14.2650480270386,1.49590837955475,-13.5821917808219,-14.8337507247925,1.60976195335388
777,-12.2703862660944,-13.3826169967651,1.04348766803741,-14.6137339055794,-14.4771327972412,1.41082751750946
778,-14.0382165605096,-13.8793992996216,1.22543179988861,-10.515923566879,-13.8499803543091,1.24833106994629
779,-17.7194029850746,-14.7211513519287,1.10519099235535,-14.0776119402985,-14.0138301849365,0.591594338417053
780,-12.1935483870968,-14.0004749298096,1.45075523853302,-17.6290322580645,-14.0836973190308,1.70459222793579
781,-14.8536585365854,-14.2150421142578,1.55111050605774,-7.41463414634146,-12.8501863479614,1.5363028049469
782,-17.1107594936709,-15.1831178665161,0.58991014957428,-12.5253164556962,-12.4325037002563,-1.3084625005722
783,-8.31521739130435,-14.0385179519653,1.47963762283325,-14.0108695652174,-13.1314945220947,1.31815588474274
784,-13.2186046511628,-13.1383571624756,1.45074427127838,-10.2790697674419,-12.3717842102051,1.5536675453186
785,-13.3915343915344,-13.3779554367065,0.325063526630402,-15.5925925925926,-11.9644956588745,1.05914723873138
786,-12.0868347338936,-12.8245897293091,0.505769431591034,-12.0896358543417,-12.8994960784912,-0.239058911800385
787,-10.1304347826087,-11.4285249710083,1.33756351470947,-14.8819875776398,-13.3708295822144,1.83827495574951
788,-10.3079584775086,-11.8270740509033,1.0362184047699,-11.1384083044983,-12.7963380813599,1.28060877323151
789,-11.6022099447514,-11.503794670105,1.23715817928314,-9.5414364640884,-12.648811340332,1.62187075614929
790,-15.7894736842105,-11.9833831787109,1.02111530303955,-18.9436090225564,-13.3190155029297,1.18028748035431
791,-7.44402985074627,-11.0548219680786,1.28100049495697,-15.1529850746269,-13.9316844940186,1.26589906215668
792,-12.3157894736842,-11.4918918609619,1.19021439552307,-9.63157894736842,-12.8816041946411,0.657137870788574
793,-14.0095238095238,-12.2322053909302,1.50557816028595,-15.4857142857143,-13.7510652542114,1.18544745445251
794,-15,-12.9117631912231,1.0756995677948,-9.51006711409396,-13.7447910308838,1.2482727766037
795,-18.5308641975309,-13.4600400924683,1.26890003681183,-2.50617283950617,-10.4573040008545,1.11262059211731
796,-10,-13.9712343215942,1.54616248607635,-12,-9.8267068862915,1.01910388469696
797,-9.02173913043478,-13.3124265670776,1.21162641048431,-11.0217391304348,-10.1047382354736,1.77610206604004
798,-15.3813559322034,-13.5867919921875,1.53179693222046,-11.364406779661,-9.28047752380371,1.4707225561142
799,-9.83859649122807,-12.5545110702515,1.08283340930939,-11.0947368421053,-9.59741115570068,0.62011855840683
800,-8.02564102564103,-10.4534664154053,1.59441721439362,-7.53525641025641,-10.6032276153564,1.28445565700531
801,-6.12758620689655,-9.67898368835449,1.65201544761658,-16.7034482758621,-11.5439167022705,1.45313835144043
802,-8.41340782122905,-9.55731773376465,1.4558402299881,-9.72067039106145,-11.2837038040161,1.37889730930328
803,-9.20408163265306,-8.32186317443848,1.51253938674927,-11.3819241982507,-11.2872066497803,1.00383019447327
804,-14.0849673202614,-9.1711368560791,1.2610719203949,-14.437908496732,-11.9558410644531,1.2979850769043
805,-8.22900763358779,-9.21181011199951,1.35024917125702,-6.65648854961832,-11.7800874710083,1.9486118555069
806,-12.9255663430421,-10.5714063644409,1.46342933177948,-16.0647249190939,-11.65234375,0.918422400951385
807,-16.1986531986532,-12.1284551620483,0.549438834190369,-8.06734006734007,-11.3216762542725,-0.440323263406754
808,-9.58842443729904,-12.2053241729736,1.47751653194427,-14.064308681672,-11.858154296875,1.49799036979675
809,-13.8988095238095,-12.1680917739868,1.33479607105255,-9.94047619047619,-10.9586668014526,1.04506325721741
810,-12,-12.9222898483276,1.44556045532227,-12,-12.0273694992065,1.40639793872833
811,-10.5339805825243,-12.4439725875854,0.0670813843607903,-12.3106796116505,-11.2765607833862,-0.946297883987427
812,-10.8373983739837,-11.3717222213745,-0.0657235234975815,-8.21951219512195,-11.3069953918457,-0.180303156375885
813,-3.66804979253112,-10.187647819519,1.62903785705566,-14,-11.2941331863403,1.91194093227386
814,-1.40530303030303,-7.68894672393799,0.253667652606964,-11.9242424242424,-11.6908855438232,-0.611172914505005
815,-12.8480392156863,-7.85855388641357,1.11902189254761,-8.93137254901961,-11.0771608352661,0.0234596580266953
816,-10,-7.75175762176514,1.56961238384247,-14,-11.4150257110596,1.62005043029785
817,-14.0626959247649,-8.39681720733643,0.637919247150421,-8.81191222570533,-11.5335054397583,0.0782700777053833
818,-2,-8.06320762634277,1.5696964263916,-10,-10.7335052490234,1.59605979919434
819,-6.07692307692308,-8.99753093719482,1.29611968994141,-9.82051282051282,-10.3127593994141,1.94648122787476
820,-14.0909090909091,-9.2461051940918,1.62072503566742,-8.39393939393939,-10.2052726745605,1.40479409694672
821,-5,-8.2461051940918,1.13625812530518,-6.51315789473684,-8.70790481567383,1.10047030448914
822,-12,-7.83356618881226,1.6090042591095,-6,-8.14552211761475,1.72358369827271
823,-10,-9.43356609344482,1.54086208343506,-10,-8.14552211761475,1.66492760181427
824,-6.59722222222222,-9.53762626647949,0.795618057250977,-9.68055555555556,-8.11752986907959,-0.709420800209045
825,-12.3039513677812,-9.18023490905762,1.53221070766449,-7.5531914893617,-7.94938039779663,1.67734801769257
826,-19.2369477911647,-12.027624130249,1.32669973373413,-13.4377510040161,-9.33430004119873,1.76970994472504
827,-11.8705035971223,-12.0017251968384,1.5522164106369,-12.3741007194245,-10.6091203689575,1.5902556180954
828,-8.32846715328467,-11.6674184799194,0.273652940988541,-11.9270072992701,-10.9945220947266,-0.575296342372894
829,-8.456,-12.0391750335693,1.61410367488861,-12.92,-11.6424102783203,1.6832400560379
830,-6.90476190476191,-10.9593372344971,1.29624509811401,-17.6507936507937,-13.6619310379028,0.607186138629913
831,-10.7124183006536,-9.25443077087402,1.53570687770844,-6.74509803921569,-12.3233995437622,1.52615356445312
832,-13.6105263157895,-9.60243511199951,1.55781137943268,-8.38947368421053,-11.5264759063721,1.35928416252136
833,-16,-11.1367416381836,1.42437493801117,-11.2870813397129,-11.3984889984131,1.57766938209534
834,-14,-12.2455415725708,1.38675165176392,-12,-11.2144899368286,1.43896126747131
835,-14,-13.6645889282227,1.57268381118774,-8,-9.28433036804199,1.42494642734528
836,-15.9298245614035,-14.7080707550049,1.24569046497345,-11.2280701754386,-10.1809253692627,1.59231042861938
837,-9.38461538461538,-13.8628873825073,1.08764731884003,-9.90384615384615,-10.4837999343872,1.3609493970871
838,-10.0966183574879,-12.6822109222412,1.36251986026764,-11.7101449275362,-10.5684118270874,1.10556173324585
839,-15.4776119402985,-12.9777345657349,1.36673712730408,-4.07462686567164,-8.98333740234375,1.41631472110748
840,-14,-12.9777345657349,1.5484482049942,-10,-9.38333702087402,1.99504923820496
841,-7.69272237196765,-11.3303127288818,0.0541824996471405,-12.3854447439353,-9.61481285095215,-0.645747303962708
842,-10.7452229299363,-11.6024351119995,1.51703155040741,-13,-10.2340431213379,1.80129158496857
843,-12.6879432624113,-12.1206998825073,0.680378139019012,-4.65248226950355,-8.82251071929932,0.216314315795898
844,-4.43839541547278,-9.91285705566406,0.436970055103302,-13,-10.6075849533081,-0.836164355278015
845,-4,-7.91285705566406,1.66061294078827,-14,-11.407585144043,1.67175841331482
846,-9.29520295202952,-8.23335361480713,1.56618702411652,-11.0405904059041,-11.138614654541,1.72624671459198
847,-14.2173913043478,-8.9277868270874,1.4878101348877,-10.3260869565217,-10.6038312911987,1.44900047779083
848,-6.09897610921502,-7.60999298095703,1.45245146751404,-14.0136518771331,-12.4760656356812,1.57904875278473
849,-13.5598705501618,-9.43428802490234,1.58859586715698,-11.042071197411,-12.0844802856445,2.10551571846008
850,-13.4409937888199,-11.3224868774414,0.286861926317215,-11.5652173913043,-11.59752368927,-1.16881573200226
851,-13.7758620689655,-12.2186183929443,0.0356886610388756,-4.3448275862069,-10.2583713531494,-1.09364557266235
852,-10.3589743589744,-11.4469356536865,1.35375559329987,-13.9820512820513,-10.9895639419556,1.6375070810318
853,0,-10.2271404266357,1.60935342311859,-16,-11.386833190918,1.54399037361145
854,-7.36904761904762,-8.98897552490234,1.45561254024506,-5.60714285714286,-10.2998476028442,1.38308990001678
855,-12.4119850187266,-8.78317451477051,1.57200539112091,-7.90262172284644,-9.56732845306396,1.66557359695435
856,-10.6335403726708,-8.154709815979,0.593417406082153,-11.944099378882,-11.0871829986572,-0.468483984470367
857,-12,-8.48291492462158,1.60743534564972,-14,-11.0907726287842,1.6166615486145
858,-15.927797833935,-11.668475151062,1.71364140510559,-3.94223826714801,-8.67922019958496,1.61598515510559
859,-5.56785714285714,-11.3082370758057,1.54129707813263,-10.2178571428571,-9.60136318206787,1.60020244121552
860,-9.58387096774194,-10.7426128387451,1.70551383495331,-10.8677419354839,-10.1943874359131,1.50678527355194
861,-11.8422712933754,-10.9843587875366,1.51454794406891,-12.4952681388013,-10.3046207427979,1.45811343193054
862,-11.3945945945946,-10.8632783889771,1.03215599060059,-8.31351351351351,-9.16732311248779,-0.548713147640228
863,-9.1404011461318,-9.50579833984375,0.831714391708374,-8.84813753581662,-10.1485033035278,1.50985562801361
864,-14.1838709677419,-11.2290019989014,-0.158931493759155,-8.53548387096774,-9.8120288848877,-0.13574343919754
865,-16.0483383685801,-12.5218944549561,0.0808594971895218,-15.4712990936556,-10.7327404022217,-0.680251896381378
866,-8.85643564356436,-11.9247283935547,1.13713622093201,-8.4950495049505,-9.93269634246826,1.84368622303009
867,-13.4580152671756,-12.3374128341675,0.925350904464722,-6.78625954198473,-9.62724590301514,1.73760223388672
868,-6,-11.7093324661255,1.74396824836731,-16,-11.0576190948486,1.75642693042755
869,-16.296928327645,-12.1319446563721,0.64543491601944,-9.77133105802048,-11.3047876358032,1.72661209106445
870,-14.9490291262136,-11.9120817184448,1.06524896621704,-14.6820388349515,-11.146936416626,1.71411633491516
871,-9.07096774193549,-11.9549884796143,1.50341963768005,-11.2,-11.6879253387451,1.61157763004303
872,-9,-11.0633850097656,0.936659336090088,-11.4123711340206,-12.61314868927,1.80997371673584
873,-9.92733564013841,-11.8488521575928,1.64970302581787,0.487889273356401,-9.31556987762451,1.7042281627655
874,-11.9003115264798,-10.9695291519165,1.59757733345032,-10.7663551401869,-9.51457500457764,1.08127188682556
875,-11.9766536964981,-10.375054359436,0.428941667079926,-13.0544747081712,-9.18906211853027,1.27874326705933
876,-13.8066298342541,-11.3221855163574,1.71617197990417,-15.5966850828729,-10.0683994293213,1.27559912204742
877,-12,-11.9221858978271,1.69732642173767,-6,-8.98592567443848,1.43464720249176
878,-8.74564459930314,-11.6858472824097,1.64828944206238,-21,-13.2835035324097,1.75725054740906
879,-12.4724409448819,-11.8002729415894,1.56251418590546,-8.02362204724409,-12.734956741333,1.1760048866272
880,-8,-11.0049419403076,1.58319437503815,-8,-11.7240619659424,1.96749174594879
881,-9.26315789473684,-10.0962476730347,1.62085652351379,-5.14473684210526,-9.63367176055908,0.593158185482025
882,-6,-8.89624881744385,1.57482433319092,-2,-8.83367156982422,1.72170507907867
883,-12.7708333333333,-9.70128631591797,1.43456721305847,-8.67361111111111,-6.36839389801025,1.7956770658493
884,-4.72985781990521,-8.15276908874512,1.6588226556778,-12.0947867298578,-7.18262720108032,1.25005805492401
885,-4,-7.35276937484741,1.55297219753265,-10,-7.58262729644775,1.73018956184387
886,-9.89763779527559,-7.47966527938843,1.19785308837891,-8.12992125984252,-8.17966365814209,1.41823184490204
887,-15.0438247011952,-9.28843116760254,-0.0103173926472664,-11.406374501992,-10.060938835144,-0.697020053863525
888,-9.9406528189911,-8.7223949432373,1.75400018692017,-10.1780415430267,-10.3618249893188,1.85560655593872
889,-14.1433333333333,-10.6050901412964,1.45547902584076,-6.06666666666667,-9.15620136260986,0.748001992702484
890,-6,-11.005090713501,1.59971857070923,-14,-9.95620155334473,1.65325963497162
891,-15.2633228840125,-12.0782270431519,1.65937030315399,-9.09090909090909,-10.148398399353,1.66571199893951
892,-13,-11.6694622039795,1.72390782833099,-14.3150684931507,-10.7301368713379,0.768800735473633
893,-14.6854219948849,-12.6184158325195,-0.0219832062721252,-17.5319693094629,-12.2009220123291,0.205432295799255
894,-10,-11.7897491455078,1.70079362392426,-6,-12.1875896453857,1.50394856929779
895,-13.8299120234604,-13.355731010437,0.406956791877747,-8.41348973607038,-11.0702877044678,-1.08801865577698
896,-10.9907692307692,-12.501220703125,0.460176110267639,-6.63076923076923,-10.5782594680786,1.64716851711273
897,-6,-11.1012210845947,1.68805813789368,-8,-9.31524562835693,1.75638747215271
898,-12.6330275229358,-10.6907405853271,0.72006744146347,-6.68807339449541,-7.14646673202515,1.55065262317657
899,-6.77443609022556,-10.0456285476685,1.68415355682373,-11.3759398496241,-8.22165489196777,1.74532067775726
900,-10.7348484848485,-9.42661571502686,1.4785863161087,-10.0378787878788,-8.54653358459473,1.67146146297455
901,-10.8029411764706,-9.38905048370361,0.738002955913544,-12.3,-9.68037891387939,0.627958178520203
902,-10.6531791907514,-10.3196859359741,1.61777877807617,-10.9190751445087,-10.2641935348511,0.962612152099609
903,-4,-8.59308052062988,1.87171196937561,-16,-12.126579284668,1.76659619808197
904,-18.9142857142857,-11.0210514068604,1.79520976543427,-12.4571428571429,-12.3428192138672,1.15049517154694
905,-4,-9.67408180236816,1.71773064136505,-4,-11.1352434158325,1.71642684936523
906,-13.5372670807453,-10.2209453582764,1.45437037944794,-10.723602484472,-10.8199634552002,1.545743227005
907,-14,-10.8903102874756,1.51288843154907,-8.92024539877301,-10.4201984405518,1.79640543460846
908,-8.82943143812709,-11.8561964035034,1.27355802059174,-18.9498327759197,-11.0101642608643,1.8097757101059
909,-4.68085106382979,-9.0095100402832,0.156084820628166,-4.91489361702128,-9.5017147064209,-0.927013516426086
910,-14,-11.0095100402832,1.53599834442139,-6,-9.90171527862549,1.58280909061432
911,-9,-10.1020565032959,1.67218160629272,-13.2680412371134,-10.4106025695801,1.7057580947876
912,-8,-8.90205669403076,1.49172878265381,-8,-10.2265529632568,1.39355444908142
913,-13.2965517241379,-9.79548072814941,0.865414977073669,-13.6655172413793,-9.16969108581543,1.54240834712982
914,-10.0159362549801,-10.8624973297119,0.375672280788422,-14.9880478087649,-11.1843214035034,-1.70854067802429
915,-10.2115942028986,-10.1048154830933,0.487760931253433,-7.74782608695652,-11.5338869094849,0.795109808444977
916,-4,-9.10481548309326,1.79472410678864,-10,-10.880277633667,1.76923894882202
917,-11.921568627451,-9.88912963867188,1.78522181510925,-13.3921568627451,-11.9587097167969,1.69183909893036
918,-10.2283950617284,-9.27549934387207,0.215935453772545,-14.5987654320988,-12.1453590393066,0.118559241294861
919,-14.5904761904762,-10.1904067993164,0.533838152885437,-11.247619047619,-11.3972730636597,-0.553966701030731
920,-13.6814159292035,-10.884370803833,1.07524716854095,-13.4070796460177,-12.5291242599487,-0.125961259007454
921,-13.4166666666667,-12.7677049636841,1.67897093296051,-13.3958333333333,-13.2082920074463,1.75027751922607
922,-18.3383838383838,-14.0510683059692,1.50439536571503,-14.9191919191919,-13.5136976242065,1.59185588359833
923,-15.8571428571429,-15.1768169403076,-0.0179465748369694,-19.6493506493506,-14.5238161087036,-1.26883220672607
924,-7.20057306590258,-13.6988372802734,1.45997130870819,-12,-14.6742916107178,1.15742576122284
925,-18.7695167286245,-14.716456413269,0.481789797544479,-14.6282527881041,-14.9185256958008,0.796539008617401
926,-6.2051282051282,-13.27414894104,1.53149473667145,-17.0102564102564,-15.6414089202881,0.721834361553192
927,-13.8768115942029,-12.3818340301514,0.922642111778259,-11.2355072463768,-14.9046726226807,1.79231321811676
928,-12.0734463276836,-11.6250953674316,1.50292217731476,-4,-11.7748031616211,1.72711181640625
929,-12.1608040201005,-12.6171417236328,1.54668021202087,-12.6984924623116,-11.9145011901855,1.20663940906525
930,-0.762886597938144,-9.01581573486328,0.832708656787872,-8.70103092783505,-10.7290563583374,1.23291325569153
931,-12.3762376237624,-10.2500371932983,1.17155194282532,-8.9009900990099,-9.10720443725586,1.76239085197449
932,-10.8932038834951,-9.65331554412842,1.66049516201019,-3.59223300970874,-7.5785493850708,1.2870546579361
933,-6.30651340996169,-8.49992942810059,1.71328353881836,-4.61685823754789,-7.70192098617554,1.45989894866943
934,-14.515625,-8.97089290618896,1.828568816185,-8.765625,-6.9153470993042,1.36316823959351
935,-6.41785714285714,-10.1018877029419,1.3549998998642,-12.725,-7.72014141082764,0.442768573760986
936,-16.8754716981132,-11.0017337799072,1.10045647621155,-12.5018867924528,-8.44032096862793,1.87588012218475
937,-5.45801526717557,-9.91469669342041,0.810773253440857,-10.7862595419847,-9.87912559509277,0.770620048046112
938,-10.3644859813084,-10.7262907028198,1.11776030063629,-4.52336448598131,-9.86042785644531,1.7719099521637
939,-10.8247011952191,-9.9881067276001,1.44687592983246,-11.8685258964143,-10.4810075759888,1.81128752231598
940,-4.21428571428571,-9.54739189147949,0.988879859447479,-14,-10.7360076904297,1.64575827121735
941,-5.59345794392523,-7.29098987579346,1.24792230129242,-7.28504672897196,-9.69263935089111,1.6875034570694
942,-9.15167095115681,-8.0297212600708,1.09085965156555,-22.7017994858612,-12.0757474899292,-0.545636534690857
943,-8.95238095238095,-7.74729919433594,0.988759815692902,-8.46825396825397,-12.864725112915,-0.462802827358246
944,-5.69607843137255,-6.72157526016235,1.19760274887085,-5.2156862745098,-11.5341577529907,0.91264808177948
945,-13.1428571428571,-8.50728893280029,0.40787610411644,-7.88571428571429,-10.31130027771,0.184921860694885
946,-4,-8.18859767913818,1.87954032421112,-10,-10.8542909622192,1.40923583507538
947,-8.42222222222222,-8.0427074432373,0.877724885940552,-15.3111111111111,-9.37615394592285,0.681142449378967
948,-14.6778846153846,-9.1878080368042,0.938774645328522,-15.9663461538462,-10.8757724761963,0.616825699806213
949,-20.4171428571429,-12.1320209503174,1.07981908321381,-14.2685714285714,-12.6863489151001,0.77872622013092
950,-14.5140186915888,-12.4062538146973,1.26351404190063,-10.7663551401869,-13.2624769210815,1.53639602661133
951,-5.66666666666667,-12.7395868301392,1.50981628894806,-9.04081632653061,-13.0706405639648,1.70801055431366
952,-12.8761061946903,-13.6303653717041,0.546427249908447,-11.6312684365782,-12.3346729278564,1.4876766204834
953,-11.1976047904192,-12.934308052063,1.0135486125946,-11.0778443113772,-11.3569717407227,1.38264358043671
954,-16.525974025974,-12.1560735702515,1.78703308105469,-16.6753246753247,-11.8383226394653,1.54719889163971
955,-8.59119496855346,-10.9715089797974,0.663973748683929,-14.5283018867925,-12.5907115936279,0.29584863781929
956,-6.90557939914163,-11.2192916870117,1.25269508361816,-8.96137339055794,-12.5748224258423,2.01488661766052
957,-4.50900900900901,-9.54587268829346,1.38832402229309,-12.7297297297297,-12.7945156097412,1.19634866714478
958,-12.8085106382979,-9.8680534362793,1.18561863899231,-14.5744680851064,-13.4938402175903,1.51771819591522
959,-12,-8.96285820007324,1.26181995868683,-18,-13.7587757110596,1.5608617067337
960,-14,-10.0446195602417,1.25782084465027,-16,-14.0531139373779,1.79227077960968
961,-13.097972972973,-11.2830982208252,0.977047324180603,-10.4560810810811,-14.3520555496216,1.10033416748047
962,-13.7289719626168,-13.1270904541016,1.95299553871155,-10.8348909657321,-13.9730882644653,1.54625403881073
963,-13.0092592592593,-13.1672410964966,0.383767753839493,-15.0925925925926,-14.0767135620117,0.95621246099472
964,-4.54954954954955,-11.6771507263184,1.15646803379059,-2.54954954954955,-10.9866237640381,2.15825414657593
965,-14.3777777777778,-11.75270652771,1.13499200344086,-14.6,-10.7066240310669,1.12554216384888
966,-10,-11.1331119537354,2.01131057739258,-8,-10.2154064178467,1.82000744342804
967,-11.8255033557047,-10.7524175643921,1.69443666934967,-7.73154362416107,-9.59473705291748,1.91706609725952
968,-12,-10.5505657196045,1.82477605342865,-4,-7.37621927261353,1.69415068626404
969,-16.1184210526316,-12.8643398284912,0.956013441085815,-10.3815789473684,-8.94262504577637,1.44050633907318
970,-15.6840148698885,-13.1255874633789,1.6086163520813,-14.6096654275093,-8.94455814361572,1.475461602211
971,-6.69124423963134,-12.4638366699219,0.710683345794678,-15.5299539170507,-10.4505481719971,1.77986001968384
972,-6,-11.2987365722656,1.65517687797546,-12,-11.3042392730713,1.79662489891052
973,-14,-11.6987361907959,1.80790603160858,-14,-13.3042402267456,1.82920908927917
974,-11.6279069767442,-10.800633430481,1.62862169742584,-6.86511627906977,-12.6009464263916,1.76775550842285
975,-5.82832618025751,-8.82949638366699,0.824711501598358,-10.5150214592275,-11.782018661499,1.96328723430634
976,-9.79874213836478,-9.45099544525146,1.25797951221466,-13.0062893081761,-11.2772855758667,1.72539567947388
977,-15.3618090452261,-11.3233575820923,0.805285096168518,-19.1507537688442,-12.7074365615845,0.660250663757324
978,-5.73245614035088,-9.66984748840332,1.08998799324036,-7.42543859649123,-11.392523765564,1.508455991745
979,-1.58762886597938,-7.66179275512695,-0.274307429790497,-15.5927835051546,-13.1380567550659,-0.482145458459854
980,-14.8974358974359,-9.47561454772949,0.510470747947693,-12.7326007326007,-13.5815734863281,0.482218563556671
981,-12.0760456273764,-9.93107414245605,-0.460179477930069,-16.4562737642586,-14.2715702056885,-0.70576024055481
982,-12.9170124481328,-9.44211578369141,1.12822127342224,-9.82572614107884,-12.4065647125244,0.515116691589355
983,-6.69604863221884,-9.63483428955078,1.04973375797272,-8.71732522796353,-12.664942741394,1.35994958877563
984,-12,-11.7173080444336,1.59945857524872,-8,-11.1463861465454,1.52383708953857
985,-6,-9.93782138824463,1.6413722038269,-8,-10.1998653411865,1.78400385379791
986,-12.4623655913978,-10.0150852203369,1.18572688102722,-14.0967741935484,-9.72796440124512,1.31715047359467
987,-9.41935483870968,-9.31555366516113,1.21713507175446,-9.34101382488479,-9.63102245330811,-0.155232280492783
988,-6.42,-9.26034355163574,0.332358986139297,-14.24,-10.7355575561523,0.416138619184494
989,-9.80382775119617,-8.8211088180542,1.16315853595734,-3.09090909090909,-9.75373935699463,-0.408049464225769
990,-10,-9.62110900878906,1.58871972560883,-4,-8.95373916625977,1.74798190593719
991,-20.4884488448845,-11.2263259887695,1.63846623897552,-9.52145214521452,-8.03867435455322,0.879169404506683
992,-10,-11.3424549102783,1.59953033924103,-8.55491329479769,-7.88145542144775,1.20780611038208
993,-11.4510869565217,-12.3486728668213,1.42101907730103,-5.64130434782609,-6.16171550750732,1.46276986598969
994,-19.2026431718062,-14.2284364700317,0.482801616191864,-14.8281938325991,-8.5091724395752,-0.756770849227905
995,-6,-13.4284362792969,1.63375854492188,-10,-9.70917320251465,1.65631663799286
996,-9.54716981132075,-11.2401790618896,0.765811324119568,-13.5849056603774,-10.5218639373779,-0.557324290275574
997,-6.81560283687943,-10.6033000946045,0.684138536453247,-12.8404255319149,-11.3789653778076,1.53399765491486
998,-8.64757709251101,-10.0425977706909,1.20302557945251,-0.383259911894274,-10.3273572921753,2.11455750465393
999,-13.2857142857143,-8.85921287536621,1.31610858440399,-7.64784053156146,-8.89128684997559,1.70430064201355
1000,-15.75,-10.8092126846313,0.76229339838028,-19.0670731707317,-10.704701423645,1.81217908859253
1001,-13.6902173913043,-11.6378221511841,0.910370528697968,-7.11684782608696,-9.41108989715576,2.00743699073792
1002,-8.58558558558559,-11.9918193817139,1.54081106185913,-6.13513513513514,-8.07003211975098,1.4823112487793
1003,-6,-11.4623031616211,1.12220454216003,-10,-9.99337959289551,1.84190630912781
1004,-16.7439024390244,-12.15394115448,1.50435733795166,-7.28048780487805,-9.91990852355957,1.41382491588593
1005,-11.2,-11.2439413070679,1.69481766223907,-4.775,-7.06149435043335,1.59418022632599
1006,-9.53266331658292,-10.4124307632446,-0.0617290660738945,-16.7286432160804,-8.98385334014893,1.53728747367859
1007,-4,-9.49531364440918,2.06297540664673,-8,-9.35682678222656,1.91303491592407
1008,-14.3893805309735,-11.173189163208,1.61644244194031,-13.5103244837758,-10.0588912963867,1.53694188594818
1009,-6.73929961089494,-9.17226886749268,1.6535177230835,-7.4863813229572,-10.1000699996948,1.65673720836639
1010,-12.0046082949309,-9.33318996429443,2.0314462184906,-10.8110599078341,-11.3072814941406,1.60629785060883
1011,-12.9408284023669,-10.0148229598999,1.08862912654877,-10.3550295857988,-10.0325593948364,1.23301935195923
1012,-14.3371647509579,-12.0822563171387,1.5885294675827,-12.6168582375479,-10.9559307098389,1.41488587856293
1013,-17.1932989690722,-12.6430397033691,0.85821795463562,-14.5360824742268,-11.1610822677612,1.40693306922913
1014,-4.48543689320388,-12.1922664642334,1.79126882553101,-14.4174757281553,-12.5473022460938,2.00491428375244
1015,-13.7686375321337,-12.545072555542,1.22250270843506,-13.5064267352185,-13.0863752365112,1.4551465511322
1016,-2,-10.3569078445435,1.7412303686142,-11.3191489361702,-13.2791996002197,0.927163898944855
1017,-7.39840637450199,-8.96915626525879,1.65458583831787,-11.7450199203187,-13.1048307418823,1.77137660980225
1018,-10,-7.53049612045288,1.8559981584549,-6,-11.3976144790649,1.86871314048767
1019,-14.1707317073171,-9.46755504608154,0.67087984085083,-18.3170731707317,-12.1775341033936,-1.02069449424744
1020,-14,-9.51382732391357,0.228484630584717,-13.4055555555556,-12.15735912323,-0.106914564967155
1021,-13.4086687306502,-11.795560836792,1.5905202627182,-9.92879256965944,-11.8792886734009,1.03086757659912
1022,-7.6578947368421,-11.8474588394165,0.604059934616089,-8.81578947368421,-11.2934427261353,-0.154258668422699
1023,-13.9792284866469,-12.6433048248291,1.84265613555908,-15.2967359050445,-13.1527891159058,0.570899963378906
1024,-8.05490196078431,-11.4201383590698,1.6752028465271,-5.05098039215686,-10.4995708465576,1.53635776042938
1025,-6.765625,-9.97326374053955,0.895053446292877,-6.03125,-9.02470970153809,1.72431409358978
1026,-11.556338028169,-9.60279750823975,1.4719979763031,-18.5845070422535,-10.7558517456055,0.638425230979919
1027,-10,-10.0712184906006,1.39975392818451,0,-8.99269390106201,1.63282525539398
1028,-14.8290598290598,-10.2411851882935,0.94690203666687,-15.7094017094017,-9.07522773742676,0.897084712982178
1029,-19.1102362204724,-12.4522523880005,1.62330639362335,-3.2007874015748,-8.7051887512207,1.3724091053009
1030,-6,-12.2991275787354,1.45458805561066,-12,-9.89893913269043,1.83295166492462
1031,-12.8196721311475,-12.551794052124,1.6405543088913,-12.7322404371585,-8.72848606109619,1.34971153736115
1032,-12,-12.9517946243286,1.7967734336853,-8,-10.3284854888916,1.69283843040466
1033,-7.64102564102564,-11.5141868591309,0.920930564403534,-10.8803418803419,-9.36267375946045,1.5669173002243
1034,-7.88397790055249,-9.26893424987793,1.4400087594986,-9.76795580110497,-10.6761074066162,1.32214105129242
1035,-10,-10.0689344406128,1.75405502319336,-8,-9.87610816955566,1.48350954055786
1036,-8.85175879396985,-9.27535247802734,1.53970801830292,-9.55276381909548,-9.24021244049072,1.81095242500305
1037,-10.8472727272727,-9.04480743408203,0.707546770572662,-12.2109090909091,-10.0823936462402,1.49155211448669
1038,-16.9836956521739,-10.9133405685425,1.8478969335556,-12.3423913043478,-10.3748035430908,1.33209836483002
1039,-12.8942731277533,-11.9153995513916,1.45670068264008,-15.1057268722467,-11.4423580169678,1.57707548141479
1040,2,-9.51539993286133,1.89951241016388,-4,-10.6423587799072,0.58300918340683
1041,-12.21926910299,-10.1889019012451,1.00434374809265,-12.8870431893688,-11.3092136383057,0.87415999174118
1042,-4.79310344827586,-8.97806739807129,0.90213418006897,-10.5095785440613,-10.9689483642578,-0.0106443911790848
1043,-7.64563106796117,-7.11045455932617,1.67050039768219,-10.5485436893204,-10.6101789474487,1.19533979892731
1044,-12,-6.93160009384155,1.9360157251358,0,-7.58903360366821,1.53570222854614
1045,-11.2112676056338,-9.57385444641113,2.09243559837341,-11.0985915492958,-9.00875186920166,1.80960178375244
1046,-11.5357142857143,-9.43714332580566,1.08552205562592,-10.4642857142857,-8.52420043945312,1.07757115364075
1047,4,-7.67852258682251,1.73788642883301,-4,-7.22228384017944,1.79751312732697
1048,-7.03381642512077,-7.55615997314453,1.54825532436371,-15.2898550724638,-8.17054653167725,-0.0765784829854965
1049,-6.50375939849624,-6.45691156387329,1.6059238910675,-5.65413533834586,-9.30137348175049,1.97223269939423
1050,-3.73043478260869,-4.96074485778809,1.25928032398224,-0.252173913043478,-7.13209009170532,1.72574007511139
1051,-9.12751677852349,-4.4791054725647,1.46408545970917,-12.3355704697987,-7.50634765625,1.77289927005768
1052,-15.753164556962,-8.42973899841309,0.305697917938232,-10.5632911392405,-8.81900596618652,-0.793780624866486
1053,-10,-9.02297401428223,1.85778176784515,-4,-6.56103420257568,1.96955537796021
1054,-5.30976430976431,-8.78417587280273,1.67654132843018,-9.88215488215488,-7.40663766860962,1.63617515563965
1055,-8,-9.63808917999268,1.99534523487091,-14,-10.1562023162842,1.85708963871002
1056,-11.448275862069,-10.102240562439,1.29442095756531,-11.8,-10.0490894317627,1.44602870941162
1057,-17.546875,-10.4609832763672,2.00106167793274,-14.265625,-10.7895555496216,2.26746416091919
1058,-7.90295358649789,-10.0415744781494,2.1716251373291,-12.9620253164557,-12.5819606781006,1.88293552398682
1059,-4.99581589958159,-9.97878456115723,1.93513000011444,-12,-13.0055294036865,1.81685161590576
1060,-8,-9.97878456115723,1.86462581157684,-2,-10.6055297851562,1.72965347766876
1061,-18,-11.2891292572021,1.23212158679962,-19.1764705882353,-12.0808238983154,1.88433599472046
1062,-8,-9.37975406646729,1.77701091766357,-6,-10.4276990890503,1.55006086826324
1063,-16.2225609756098,-11.0436754226685,0.195259481668472,-18.7164634146341,-11.5785865783691,-0.176781117916107
1064,-13.7350993377483,-12.7915325164795,2.08488893508911,-13.0860927152318,-11.795804977417,1.66951811313629
1065,-3.27555555555556,-11.846643447876,1.75311195850372,-8.2,-13.0358047485352,1.77311718463898
1066,-10,-10.2466430664062,1.15025436878204,4,-8.40051078796387,1.56066191196442
1067,-14.5027322404372,-11.5471897125244,1.44199001789093,-14.2349726775956,-10.0475063323975,1.98229038715363
1068,-14.0486486486486,-11.1124067306519,0.782689154148102,-10.1945945945946,-8.34313201904297,-0.521666169166565
1069,-11.4299516908213,-10.6513767242432,1.14996337890625,-8.85024154589372,-7.49596166610718,-0.0332015454769135
1070,-7.7551867219917,-11.5473041534424,1.7748521566391,-16.0871369294606,-9.07338905334473,1.92003035545349
1071,-7.08597285067873,-10.9644985198975,1.83902454376221,-10.4524886877828,-11.9638872146606,1.46978843212128
1072,-11.2391304347826,-10.3117780685425,1.65609884262085,-8.84420289855072,-10.8857326507568,0.24691478908062
1073,-6.29885057471264,-8.76181888580322,1.88936710357666,-15.6896551724138,-11.9847459793091,1.75549530982971
1074,-16.6078431372549,-9.79739665985107,0.792595148086548,-12.6078431372549,-12.7362651824951,0.975887060165405
1075,-6.94052044609665,-9.6344633102417,1.95815300941467,-2.18959107806691,-9.95675659179688,1.93831205368042
1076,-7.93700787401575,-9.8046703338623,1.14893758296967,-3.66929133858268,-8.60011672973633,1.01084101200104
1077,-7.06535947712418,-8.96991634368896,1.76739764213562,-19.8039215686275,-10.7920589447021,1.77870881557465
1078,-12.2436974789916,-10.1588850021362,1.56002807617188,-14.453781512605,-10.544885635376,1.18086588382721
1079,-8.76305220883534,-8.58992767333984,1.52380013465881,-14.4819277108434,-10.9197025299072,0.72319233417511
1080,-6.54940711462451,-8.51170539855957,1.00404047966003,-10.399209486166,-12.5616254806519,0.713501572608948
1081,-6.45569620253164,-8.21544170379639,1.04217457771301,-8.19409282700422,-13.4665861129761,1.5803747177124
1082,-6.6687306501548,-8.13611698150635,1.22838270664215,-15.3312693498452,-12.5720548629761,1.3704628944397
1083,-9.88980716253444,-7.66533803939819,1.22797083854675,-12.1515151515152,-12.1116027832031,0.974696516990662
1084,-7.78030303030303,-7.46878910064697,1.3831752538681,-14.9242424242424,-12.200065612793,0.399212539196014
1085,-5.47142857142857,-7.25319290161133,1.75748991966248,-12.2714285714286,-12.5745096206665,1.58569467067719
1086,-7.20322580645161,-7.4026985168457,1.78131175041199,-10.7741935483871,-13.0905303955078,1.94635474681854
1087,-5.53386454183267,-7.17572546005249,1.40336537361145,-5.55776892430279,-11.1358299255371,0.0141232907772064
1088,-6.88646288209607,-6.57505655288696,1.16689252853394,-1.1528384279476,-8.93609428405762,1.44682276248932
1089,-8.89247311827957,-6.79749059677124,0.62371414899826,-11.1774193548387,-8.18672943115234,-0.569276809692383
1090,-16.1725490196078,-8.93771553039551,1.01093864440918,-20.443137254902,-9.82107162475586,2.37885236740112
1091,-9.73125,-9.44331932067871,0.385944098234177,-15.334375,-10.7331075668335,1.26495432853699
1092,-15.1358024691358,-11.3637065887451,1.87321841716766,-19.3086419753086,-13.4832820892334,1.92474031448364
1093,-14,-12.786413192749,1.49800968170166,-14.4879725085911,-16.1503105163574,1.58182036876678
1094,-5.09163346613546,-12.0262470245361,1.77211546897888,-8.48207171314741,-15.6112394332886,1.95004153251648
1095,-10.0766423357664,-10.8070650100708,1.52121877670288,-11.7846715328467,-13.8795471191406,1.14697229862213
1096,-10,-10.8608150482178,2.2051112651825,-8,-12.4126720428467,2.17130970954895
1097,-10.0928571428571,-9.85222625732422,2.18443846702576,-13.9178571428571,-11.3345146179199,1.86516916751862
1098,-5.33444816053512,-8.11911582946777,2.24645709991455,-11.371237458194,-10.7111682891846,1.73088765144348
1099,-12.8659003831418,-9.67396926879883,1.69293415546417,-10.3371647509579,-11.0821866989136,0.638963878154755
1100,-9.71008403361345,-9.60065746307373,1.98051977157593,-18,-12.325252532959,1.52459156513214
1101,-12.6185567010309,-10.1243686676025,1.0481253862381,-13.1185567010309,-13.3489637374878,1.9141366481781
1102,-16.3169934640523,-11.3691968917847,0.73283451795578,-12.8039215686275,-13.1261768341064,1.97629451751709
1103,-10.7608069164265,-12.4544677734375,1.61288833618164,-11.7636887608069,-13.2046661376953,-0.42926749587059
1104,-7.74712643678161,-11.4307136535645,1.86195909976959,-8.44827586206896,-12.8268890380859,2.63605237007141
1105,-7.28448275862069,-10.945592880249,1.92451179027557,-12.125,-11.6518878936768,0.471242398023605
1106,-6.68367346938775,-9.75861644744873,2.03843307495117,-11.2959183673469,-11.2873611450195,1.14917838573456
1107,-7.61648745519713,-8.01851463317871,1.34357917308807,-9.23655913978495,-10.5738887786865,1.31421303749084
1108,-11.4754098360656,-8.16143608093262,0.258134603500366,-8.91147540983607,-10.0034465789795,-0.958985447883606
1109,-9.97692307692308,-8.60739612579346,1.34637296199799,-14.9153846153846,-11.2968673706055,1.48351848125458
1110,-12,-9.55049896240234,1.86992156505585,-2,-9.2718677520752,2.16688323020935
1111,-11.8786764705882,-10.5894985198975,1.69536232948303,-8.72794117647059,-8.75827217102051,1.6994936466217
1112,-12.5435356200528,-11.5749082565308,1.53502666950226,-14.3007915567282,-9.7711181640625,1.47616195678711
1113,-18,-12.8798265457153,1.92390298843384,2.98514851485149,-7.39179372787476,1.82701706886292
1114,-12.8308823529412,-13.4506196975708,0.799174249172211,-6.69117647058824,-5.74695205688477,1.02312314510345
1115,-20.4358108108108,-15.1377811431885,1.50460481643677,-20,-9.34695243835449,1.40116655826569
1116,-14,-15.5620450973511,1.17408990859985,-6,-8.80136394500732,2.01761054992676
1117,-16.3140495867769,-16.3161487579346,0.632611036300659,-4.31404958677686,-6.80401515960693,1.72320437431335
1118,-6,-13.91614818573,1.80124866962433,-8,-9.00104522705078,1.99376916885376
1119,-9.72820512820513,-13.2956113815308,2.20933485031128,-12.8974358974359,-10.2422971725464,1.18401300907135
1120,-11.2510460251046,-11.4586591720581,0.86468631029129,-13.0836820083682,-8.85903358459473,0.238892763853073
1121,-16.3322147651007,-11.9251022338867,1.71347570419312,-20.0704697986577,-11.6731271743774,2.02688527107239
1122,-6,-9.86229228973389,1.64509832859039,-4,-11.6103172302246,1.71029245853424
1123,-6,-9.86229228973389,1.70268535614014,-10,-12.0103168487549,1.70908975601196
1124,-2.26751592356688,-8.37015533447266,0.094753161072731,-7.27388535031847,-10.8856067657471,-0.672056913375854
1125,-5.59430604982206,-7.23880672454834,2.08613204956055,-12.2170818505338,-10.7122869491577,1.73019969463348
1126,-11.0070921985816,-6.17378234863281,1.97307562828064,-9.27659574468085,-8.55351257324219,1.94277656078339
1127,-13.7466216216216,-7.72310781478882,0.815300047397614,-14.7939189189189,-10.7122964859009,2.2578456401825
1128,-7.77777777777778,-8.07866382598877,1.58693671226501,-11.4861111111111,-11.0095186233521,1.55636382102966
1129,-11.7212543554007,-9.96941089630127,1.78629982471466,-4.74564459930314,-10.503870010376,2.04927468299866
1130,-13.7908496732026,-11.6087188720703,1.82112729549408,-12.9052287581699,-10.6414995193481,1.77897715568542
1131,-12.4425675675676,-11.8958148956299,0.936479926109314,-11.25,-11.0361804962158,0.0113318860530853
1132,-9.26421404682274,-10.9993333816528,1.19733643531799,-14.4648829431438,-10.9703731536865,1.69366312026978
1133,-3.42758620689655,-10.1292934417725,1.69541335105896,-4.93103448275862,-9.65935707092285,1.6302262544632
1134,-10,-9.78504371643066,1.94900417327881,4,-7.91022872924805,1.76397144794464
1135,2,-6.62687397003174,1.90668082237244,-6,-6.52918338775635,1.86551809310913
1136,-10.5407407407407,-6.24650812149048,0.460202574729919,-13.5185185185185,-6.98288726806641,-0.735965549945831
1137,-15.5384615384615,-7.50135803222656,1.00354433059692,-15.1153846153846,-7.11298751831055,1.45799398422241
1138,-10.1834862385321,-8.85253715515137,1.85323095321655,-8.1743119266055,-7.761643409729,1.45013499259949
1139,-9.69122807017544,-8.7907829284668,0.677812874317169,-18.4842105263158,-12.2584857940674,-0.497745394706726
1140,-6,-10.3907833099365,2.10511016845703,-12,-13.4584856033325,1.92166388034821
1141,-0.595238095238095,-8.40168190002441,1.24665915966034,-7.99603174603175,-12.3539876937866,1.46525883674622
1142,-3.37368421052632,-5.96872711181641,1.99911999702454,-9.85789473684211,-11.302490234375,1.6384414434433
1143,-11.4688427299703,-6.22579860687256,1.47903251647949,-17.5341246290801,-13.1744537353516,1.80565071105957
1144,-14.5991189427313,-7.2073769569397,-0.481779485940933,-6.01321585903084,-10.6802539825439,-0.389354109764099
1145,-4,-6.80737686157227,1.95557701587677,-6,-9.48025321960449,2.12688970565796
1146,-14.408,-9.5699291229248,1.76764810085297,-12.32,-10.3450469970703,1.55518960952759
1147,-3.78571428571429,-9.65233421325684,2.8011794090271,-9.03781512605042,-10.1810302734375,-0.50871729850769
1148,-7.43346007604563,-8.84525871276855,0.601938486099243,-12.1901140684411,-9.11222839355469,-0.817769467830658
1149,-6.88958990536278,-7.30335330963135,1.63385272026062,-6.19242902208202,-9.1480712890625,1.54886841773987
1150,-4.17241379310345,-7.33783578872681,1.88540852069855,-15.0804597701149,-10.9641628265381,1.59368753433228
1151,-7.35555555555555,-5.92734670639038,1.58677506446838,-14.0666666666667,-11.3134965896606,1.50077259540558
1152,-13.3162939297125,-7.83346271514893,-0.104333624243736,-13.1661341853035,-12.13916015625,-0.139895111322403
1153,-10,-8.34677028656006,2.00356459617615,-2,-10.1011371612549,1.81134688854218
1154,-6.34677419354839,-8.23820686340332,2.09361386299133,-11.1693548387097,-11.0965223312378,1.00432693958282
1155,-2.82195845697329,-7.96811676025391,1.60821962356567,-12.2373887240356,-10.5279083251953,1.44318628311157
1156,-6.54838709677419,-7.80668354034424,0.563628494739532,-14.6193548387097,-10.638445854187,-0.460189670324326
1157,-2,-5.54342365264893,2.1170961856842,2,-7.60521984100342,1.76448404788971
