EpisodeIndex,DQNEpisodeReward,DQNAverageReward,DQNEpisodeQ0,DDQNEpisodeReward,DDQNAverageReward,DDQNEpisodeQ0
1,-20.8222540575248,-20.8222541809082,0.0450100041925907,-15.3053745788674,-15.3053741455078,0.0450100041925907
2,-16.6569887228742,-18.7396202087402,1.27884316444397,-15.9933579172552,-15.6493663787842,0.317354619503021
3,-18.1391912505885,-18.5394763946533,0.293389737606049,-12.731797587534,-14.6768426895142,0.796414852142334
4,-24,-19.9046077728271,0.825161576271057,-13.1679196610926,-14.2996120452881,0.535138428211212
5,-19.0872720553483,-19.7411403656006,1.00411152839661,-18.8967395597673,-15.2190380096436,0.665759682655334
6,-14.1782546282044,-18.8139934539795,1.94729900360107,-21.9977859724184,-16.3488292694092,0.365972101688385
7,-16.3463364460213,-18.4614696502686,1.18240249156952,-11.8595128005146,-15.7074975967407,-0.260939121246338
8,-15.9911438896736,-18.1526794433594,0.755660474300385,-18.3736324212646,-16.0407638549805,-0.215941444039345
9,-17.2562041306374,-18.053071975708,1.22344017028809,-11.4752832993352,-15.5334892272949,0.498520046472549
10,-17.1418788237179,-17.9619541168213,0.921194434165955,-16.0360587178978,-15.5837459564209,0.458125710487366
11,-17.9933579172552,-17.964807510376,1.18383228778839,-15.1311531789291,-15.5426015853882,0.38447031378746
12,-15.4828323011164,-17.7579746246338,1.17976450920105,-13.7191122737696,-15.3906440734863,0.365680396556854
13,-24,-18.238130569458,1.55903816223145,-18.7704279809495,-15.6506280899048,0.205710470676422
14,-17.9933579172552,-18.220645904541,0.870266318321228,-17.9933579172552,-15.817964553833,1.14299654960632
15,-12.8190502352985,-17.8605403900146,0.799253046512604,-18.6808579172552,-16.008825302124,0.966744601726532
16,-13.1200491678437,-17.5642604827881,0.844747722148895,-12.5573449484489,-15.7931070327759,0.785926103591919
17,-16.2238482921893,-17.4854125976562,1.04668653011322,-18.729206973859,-15.9658184051514,0.630071759223938
18,-8.69302177268108,-16.9969463348389,1.81851589679718,-15.9884396702788,-15.9670763015747,0.202158376574516
19,-15.9911438896736,-16.9440078735352,1.06577968597412,-19.9955719448368,-16.1791019439697,0.892665386199951
20,-14.2665994744729,-16.8101387023926,1.18393969535828,-12.2412663106901,-15.9822111129761,0.462575733661652
21,-13.4796637890286,-16.6515464782715,0.730872750282288,-17.9906536978604,-16.0778484344482,0.437264025211334
22,-14.4806076651691,-16.5528659820557,1.44012320041656,-19.9977859724184,-16.2560291290283,1.16237759590149
23,-16.2073601058898,-16.5378437042236,1.14832627773285,-18.3266912505885,-16.3460578918457,-0.59489917755127
24,-13.5835744732538,-16.4147491455078,3.7021369934082,-14.7633087802264,-16.2801113128662,0.39294970035553
25,-13.9862256426972,-16.3176078796387,1.01096034049988,-11.9802184822749,-16.1081161499023,-0.0384500026702881
26,-17.9933579172552,-16.3820610046387,1.04786765575409,-17.9933579172552,-16.1806240081787,1.09431624412537
27,-17.9933579172552,-16.4417381286621,0.939018487930298,-15.1884728337084,-16.1438770294189,0.653325796127319
28,-18.6719723791791,-16.5213890075684,3.14588212966919,-12.4428458572592,-16.011697769165,0.561758697032928
29,-16.6941141867033,-16.5273456573486,0.445641934871674,-16.3002886103245,-16.0216503143311,-0.031116209924221
30,-20.0268945026211,-16.6439971923828,0.907979071140289,-24,-16.2875938415527,-0.364310801029205
31,-18.043919715008,-16.6891555786133,0.499372929334641,-14.1271515856578,-16.217903137207,0.0153787285089493
32,-17.9933579172552,-16.7299118041992,0.662964582443237,-7.97687934055757,-15.9603710174561,-0.166543498635292
33,-18.0526692017364,-16.7699966430664,0.638355255126953,-14.0764152075031,-15.903281211853,-0.0318715460598469
34,-17.9906536978604,-16.8058967590332,1.06684184074402,-9.96707904729456,-15.7286863327026,-0.0516599081456661
35,-15.1167076398698,-16.7576351165771,1.26343083381653,-17.9906536978604,-15.7933139801025,-0.146717846393585
36,-20.6348413512295,-16.8653335571289,0.46692082285881,-14.529604638131,-15.7582111358643,-0.0904898196458817
37,-21.4341684360649,-16.9888172149658,0.629949808120728,-15.3985063444516,-15.7484893798828,-0.339984178543091
38,-13.4508306670463,-16.8957118988037,1.47101819515228,-13.2683887354337,-15.6832246780396,-0.490036725997925
39,-24,-17.0778751373291,1.47836148738861,-14.0653627472019,-15.6417407989502,-0.768562912940979
40,-17.7530486515784,-17.0947532653809,1.22422409057617,-17.9906536978604,-15.7004642486572,-0.970317006111145
41,-15.9862256426972,-17.0677165985107,0.995891809463501,-11.8812672811826,-15.6073112487793,-0.878326773643494
42,-20.7189762001559,-17.1546516418457,1.33396339416504,-13.2229724152835,-15.5505428314209,-0.656457006931305
43,-11.9402584166829,-17.0333862304688,1.10195481777191,-16.8940565110328,-15.581787109375,-0.465196639299393
44,-21.9977859724184,-17.1462116241455,0.666794955730438,-20.0284666816789,-15.6828470230103,-0.438216865062714
45,-17.9933579172552,-17.1650390625,1.11132431030273,-22.950727148889,-15.8443574905396,-0.449020087718964
46,-22.5665592066191,-17.2824630737305,0.967002689838409,-18.7963318949504,-15.9085292816162,-0.420703768730164
47,-11.9780044546933,-17.1696033477783,0.8882896900177,-13.9862256426972,-15.8676290512085,-0.322252750396729
48,-14.3130438731801,-17.1100902557373,-0.78722071647644,-16.6750148574155,-15.8844499588013,-0.0670076757669449
49,-12.4112843423883,-17.0141983032227,1.15735518932343,-14.6589529154245,-15.8594398498535,0.134275674819946
50,-14.0571116802738,-16.9550533294678,0.962661027908325,-18.2861082433149,-15.9079732894897,0.106825470924377
51,-19.9955719448368,-17.0146732330322,1.08007311820984,-16.6502347987645,-15.9225273132324,-0.137624934315681
52,-13.9933555884919,-16.9565715789795,1.23162364959717,-10.6997709068226,-15.8220891952515,-0.299627989530563
53,-19.2790722029695,-17.0003910064697,1.15553295612335,-20.2955719448368,-15.9064950942993,-0.408471375703812
54,-13.6985330211765,-16.9392471313477,1.14485204219818,-19.1512754595184,-15.9665832519531,-0.71916800737381
55,-18.5266912505885,-16.9681091308594,1.13651728630066,-19.9955719448368,-16.0398387908936,-1.22524309158325
56,-17.2042670084083,-16.9723243713379,0.92867374420166,-20.9510233824903,-16.1275367736816,-1.45895981788635
57,-24,-17.0956172943115,0.325635969638824,-17.1718716229415,-16.1458587646484,-1.41496133804321
58,-15.9911438896736,-17.0765762329102,0.889290690422058,-15.9911438896736,-16.1431922912598,-1.34425961971283
59,-18.088294626116,-17.0937232971191,1.09184491634369,-16.5164603453698,-16.1495189666748,-1.10478687286377
60,-18.7841433734082,-17.1218967437744,1.05148839950562,-16.7762150601123,-16.1599636077881,-1.03983962535858
61,-14.9486316577348,-17.0862693786621,0.493933260440826,-17.9906536978604,-16.1899757385254,-1.02434909343719
62,-22.1357170069012,-17.1677131652832,0.629297971725464,-11.5565102312121,-16.1152420043945,-0.834239184856415
63,-11.9753002352985,-17.0852947235107,0.853789448738098,-15.9906536978604,-16.1132640838623,-0.643472969532013
64,-15.9911438896736,-17.0681991577148,1.87013161182404,-20.9477064351194,-16.1888027191162,-0.462176412343979
65,-19.9955719448368,-17.1132316589355,0.540274858474731,-17.0863811730691,-16.2026119232178,-0.409126728773117
66,-18.0673870386998,-17.1276893615723,0.500919461250305,-15.1813800361682,-16.1871376037598,-0.600230634212494
67,-19.9955719448368,-17.1704940795898,0.387382745742798,-13.9862256426972,-16.1542892456055,-0.72876912355423
68,-12.5424531735571,-17.1024341583252,0.988876402378082,-18.811539735437,-16.1933670043945,-0.554962396621704
69,-13.988929862092,-17.0573120117188,1.13406419754028,-13.9862256426972,-16.1613788604736,-0.449946284294128
70,-20.2251039490012,-17.1025676727295,1.10875010490417,-18.937988065412,-16.2010440826416,-0.444798916578293
71,-12.2077224900604,-17.0336246490479,1.30484998226166,-22.3940123875127,-16.2882690429688,-0.675486207008362
72,-17.9933579172552,-17.0469551086426,1.03777432441711,-19.9955719448368,-16.3397598266602,-0.984598159790039
73,-11.9753002352985,-16.9774799346924,1.03556883335114,-15.9884396702788,-16.3349475860596,-0.951477527618408
74,-15.7187348760196,-16.960470199585,0.911638736724854,-11.9904302528543,-16.276237487793,-0.714655637741089
75,-17.9884396702788,-16.9741764068604,0.250690817832947,-11.2750390650856,-16.2095546722412,-0.543482780456543
76,-14.8996441478063,-16.9468803405762,0.500016927719116,-22.2477859724184,-16.289005279541,-0.549258887767792
77,-17.9906536978604,-16.9604358673096,0.506385147571564,-22.544127435833,-16.3702411651611,-0.648876845836639
78,-3.96865815255366,-16.7938747406006,1.04588747024536,-17.9933579172552,-16.3910484313965,-0.649614214897156
79,-14.8088280197933,-16.7687473297119,0.731244325637817,-12.7871326384392,-16.3454303741455,-0.4946149289608
80,-19.9457557386767,-16.8084602355957,0.539125144481659,-18.0445515366735,-16.3666687011719,-0.318360596895218
81,-11.9813073957208,-16.7488651275635,1.00002777576447,-17.9933579172552,-16.3867511749268,-0.260534286499023
82,-5.25659263053768,-16.608715057373,3.45578575134277,-14.5757562093974,-16.3646659851074,-0.242738619446754
83,-11.9813073957208,-16.5529632568359,1.15976715087891,-17.9906536978604,-16.3842544555664,-0.178415045142174
84,-13.7693774687741,-16.5198249816895,1.04302203655243,-13.5742555175546,-16.3508033752441,-0.119980283081532
85,-20.6997972969495,-16.5690021514893,0.0630592107772827,-17.9906536978604,-16.370096206665,-0.0261418800801039
86,-21.9977859724184,-16.6321277618408,-0.396530032157898,-16.3553057393846,-16.3699245452881,-0.056790329515934
87,-16.5712617561684,-16.6314277648926,0.562171518802643,-17.9906536978604,-16.3885536193848,-0.166617795825005
88,-19.9955719448368,-16.66965675354,0.944496035575867,-19.9955719448368,-16.4295425415039,-0.222134992480278
89,-18.8431433249805,-16.6940765380859,1.23938035964966,-15.5114184190105,-16.419225692749,-0.238906785845757
90,-21.9977859724184,-16.7530078887939,0.960448563098907,-7.97417512116275,-16.3253917694092,-0.206883236765862
91,-19.4933579172552,-16.7831211090088,1.22922170162201,-10.6808721801353,-16.2633647918701,-0.0670087188482285
92,-20.4612582193466,-16.8231010437012,1.03010416030884,-17.7188318271415,-16.2791862487793,0.0273322928696871
93,-12.6274238623268,-16.7779865264893,0.495328634977341,-24,-16.3622055053711,-0.211043268442154
94,-18.0156536978604,-16.7911529541016,0.24605268239975,-15.0612256426972,-16.3483638763428,-0.539977133274078
95,-15.9933579172552,-16.7827568054199,0.555223703384399,-15.0879397630821,-16.3350963592529,-0.572404444217682
96,-16.3174439992831,-16.7779083251953,0.752802193164825,-20.4068273560922,-16.3775119781494,-0.430181413888931
97,-24,-16.8523635864258,1.77426552772522,-17.2036295436965,-16.3860282897949,-0.423098176717758
98,-15.4467519584867,-16.8380184173584,2.31246638298035,-14.8968245989341,-16.3708324432373,-0.476322740316391
99,-20.2396664330258,-16.8723793029785,0.660605311393738,-19.9955719448368,-16.4074459075928,-0.477573037147522
100,-18.4684960388022,-16.8883399963379,0.397732943296432,-15.0967228802662,-16.3943386077881,-0.492796450853348
101,-10.8352126781561,-16.8284072875977,0.884474694728851,-21.9977859724184,-16.4498176574707,-0.564909517765045
102,-16.2893895037087,-16.8231239318848,1.12656915187836,-14.7523075140422,-16.4331760406494,-0.580948352813721
103,-8.32223956493093,-16.7405891418457,0.888743877410889,-11.3299705611216,-16.3836307525635,-0.536897361278534
104,-18.6072242006655,-16.7585372924805,0.820068836212158,-14.7126867681693,-16.3675632476807,-0.471981644630432
105,-18.5756363982679,-16.7758445739746,0.819853961467743,-20.0715213119254,-16.4028396606445,-0.563274323940277
106,-14.3555282778737,-16.7530097961426,2.09553909301758,-21.9977859724184,-16.4556198120117,-0.834597826004028
107,-12.563450867452,-16.7138557434082,0.653781771659851,-15.1940471469143,-16.4438304901123,-1.12947487831116
108,-18.5196737067289,-16.7305774688721,1.11070907115936,-16.8332491528315,-16.4474353790283,-1.23865747451782
109,-11.5373531430895,-16.682933807373,1.0899201631546,-16.5444854176476,-16.4483280181885,-0.952265620231628
110,-17.9933579172552,-16.6948471069336,2.64473819732666,-20.4339281092204,-16.4845600128174,-0.825975954532623
111,-9.98723237014267,-16.6344184875488,0.951771676540375,-17.9906536978604,-16.4981288909912,-0.87214183807373
112,-21.9977859724184,-16.6823062896729,1.24615943431854,-14.6220952079146,-16.4813785552979,-0.875581920146942
113,-15.985735450884,-16.676139831543,1.1153404712677,-18.9899449479719,-16.5035781860352,-0.72754293680191
114,-9.98130739572077,-16.6174144744873,0.998547673225403,-17.9933579172552,-16.5166473388672,-0.701966047286987
115,-15.0819531179059,-16.604061126709,0.821830868721008,-18.9003346614412,-16.5373725891113,-0.670277774333954
116,-13.9862256426972,-16.5814952850342,1.17827785015106,-19.9955719448368,-16.5671844482422,-0.612195491790771
117,-13.144196149471,-16.552116394043,1.2226322889328,-20.9168317873565,-16.604362487793,-0.582302212715149
118,-15.1362386439617,-16.5401172637939,0.989388823509216,-18.9367006934592,-16.6241264343262,-0.581567585468292
119,-13.5863855023559,-16.5152950286865,0.465539246797562,-17.9933579172552,-16.6356334686279,-0.642582297325134
120,-19.779199953367,-16.5424938201904,0.603194534778595,-13.706478575468,-16.6112251281738,-0.677803695201874
121,-14.554407460879,-16.5260639190674,1.0031566619873,-9.97308620771686,-16.5563640594482,-0.856672704219818
122,-11.9840116151156,-16.4888343811035,1.06175208091736,-13.9862256426972,-16.5352973937988,-0.887951791286469
123,-11.6418882483035,-16.4494285583496,0.812867403030396,-15.3160258771753,-16.5253849029541,-0.510611057281494
124,-18.8551090693289,-16.4688282012939,0.0829073339700699,-22.4125325161972,-16.5728607177734,-0.342412918806076
125,-17.5626794234367,-16.4775772094727,0.018636018037796,-20.2219093933965,-16.6020545959473,-0.383091300725937
126,-17.9933579172552,-16.4896106719971,0.74243026971817,-9.98401161511558,-16.5495300292969,-0.351992636919022
127,-15.9884396702788,-16.4856624603271,1.55158615112305,-10.1814743205201,-16.4993877410889,-0.151330262422562
128,-18.8376202123372,-16.5040378570557,1.16390800476074,-21.2414735841811,-16.536434173584,0.00356593984179199
129,-18.8591297293357,-16.5222949981689,0.746242702007294,-12.5276357761894,-16.5053596496582,-0.217583149671555
130,-13.9911438896736,-16.5028247833252,1.07551670074463,-17.9933579172552,-16.5168037414551,-0.468469500541687
131,-20.0891391962988,-16.5302028656006,1.1714278459549,-18.0869251687172,-16.5287895202637,-0.361019730567932
132,-18.8393931936587,-16.5476970672607,0.761565208435059,-17.0034409132178,-16.5323848724365,-0.265208184719086
133,-17.9933579172552,-16.5585651397705,0.139451324939728,-18.4138124627097,-16.5465335845947,-0.386245727539062
134,-19.1485131213074,-16.5778942108154,0.567215144634247,-9.58485091359922,-16.4945793151855,-0.615423321723938
135,-13.0819539297485,-16.5519962310791,0.986593425273895,-14.5317870049491,-16.4800415039062,-0.688271760940552
136,-15.687746775415,-16.5456409454346,0.618161261081696,-12.8847064627109,-16.4536037445068,-0.543857753276825
137,-13.4233970572178,-16.5228519439697,0.728646874427795,-21.9977859724184,-16.4940719604492,-0.415437012910843
138,-19.9955719448368,-16.5480155944824,0.979174852371216,-11.9780044546933,-16.4613475799561,-0.290594696998596
139,-17.9857962960907,-16.5583610534668,0.783222496509552,-19.5334648691269,-16.4834499359131,-0.102776184678078
140,-7.67865763402645,-16.4949321746826,0.8797407746315,-15.2041068526366,-16.4743118286133,-0.0844437256455421
141,-19.9955719448368,-16.5197601318359,1.04515469074249,-17.9933579172552,-16.4850845336914,-0.205697521567345
142,-11.9840116151156,-16.4878177642822,1.05255341529846,-21.9977859724184,-16.5239067077637,-0.211515113711357
143,-12.8530866406937,-16.4624004364014,1.09161448478699,-20.3655385328954,-16.5507717132568,-0.168352961540222
144,-13.9862256426972,-16.4452037811279,1.06448316574097,-17.9906536978604,-16.56077003479,-0.187257617712021
145,-14.6636449975359,-16.4329166412354,1.163201212883,-14.5393582672211,-16.5468292236328,-0.179064318537712
146,-15.4434753166374,-16.4261417388916,0.864115118980408,-20.8364810357459,-16.5762100219727,-0.101787410676479
147,-15.9911438896736,-16.4231815338135,0.985695362091064,-15.985735450884,-16.572193145752,-0.0468353964388371
148,-17.1053227871619,-16.4277896881104,0.708498477935791,-16.8223127208424,-16.5738830566406,-0.153875231742859
149,-10.7796152427944,-16.3898849487305,1.44243025779724,-15.9933579172552,-16.5699882507324,-0.263637691736221
150,-10.8673615245637,-16.3530654907227,0.926451325416565,-18.4346986993781,-16.5824184417725,-0.190702855587006
151,-6.50164372935337,-16.2575969696045,0.708864212036133,-22.2717585751581,-16.6288623809814,-0.102813936769962
152,-16.2911438896736,-16.2551555633545,1.34736239910126,-15.1185214233024,-16.6230297088623,-0.151418671011925
153,-10.3195404271117,-16.2030277252197,1.09900438785553,-17.9955719448368,-16.6581192016602,-0.231693133711815
154,-11.5115477461784,-16.1197700500488,0.872748851776123,-10.4213580270944,-16.6398105621338,-0.202160611748695
155,-11.3753875996252,-16.0683574676514,0.869879305362701,-18.8126350256889,-16.6392517089844,-0.01850276440382
156,-15.9911438896736,-16.0804443359375,0.675166487693787,-17.9933579172552,-16.6125545501709,0.127307146787643
157,-20.9078526465912,-16.1108551025391,1.27781224250793,-11.6600009534275,-16.6112232208252,0.213120609521866
158,-12.1582051635027,-16.0853004455566,0.683361828327179,-14.6829998362456,-16.5866203308105,0.328773975372314
159,-18.7646889752757,-16.0953559875488,0.496078848838806,-24,-16.6701164245605,0.208958595991135
160,-18.761650600182,-16.1061553955078,0.869589567184448,-14.9924136042261,-16.663158416748,-0.147770896553993
161,-14.8980207711829,-16.0855197906494,0.208066672086716,-16.0751760990734,-16.6694526672363,-0.350911825895309
162,-17.1573488758232,-16.0966835021973,0.698751509189606,-13.7900399342334,-16.6699256896973,-0.321501433849335
163,-16.8864318477888,-16.049259185791,0.898781955242157,-19.0063605041431,-16.6714992523193,-0.268331348896027
164,-19.3815932113728,-16.0585136413574,0.996401786804199,-14.6685785838737,-16.6493320465088,-0.319301277399063
165,-17.5922077194608,-16.0903358459473,0.64463084936142,-24,-16.6847953796387,-0.368185698986053
166,-11.9780044546933,-16.0827217102051,1.20881175994873,-13.9862256426972,-16.6943187713623,-0.349521964788437
167,-18.5332352178687,-16.0981178283691,1.08516097068787,-17.9933579172552,-16.6894149780273,-0.18772979080677
168,-11.9840116151156,-16.1200580596924,1.06534659862518,-13.9862256426972,-16.6760654449463,0.0809521079063416
169,-17.9955719448368,-16.1334209442139,0.911756217479706,-18.7227696819611,-16.6675815582275,0.165428668260574
170,-10.2562672811826,-16.1066856384277,0.925549983978271,-16.4857091070649,-16.6958770751953,0.0810691490769386
171,-16.2256271389565,-16.1249923706055,0.779794096946716,-19.5419863461829,-16.7062187194824,-0.0120139615610242
172,-16.225780761182,-16.136625289917,0.497352600097656,-17.9906536978604,-16.6928386688232,-0.134083092212677
173,-13.9884396702788,-16.1218338012695,0.703170657157898,-10.2842055134686,-16.6392211914062,-0.27314755320549
174,-19.9955719448368,-16.1645793914795,0.562402427196503,-14.8917811982527,-16.6400775909424,-0.283911287784576
175,-16.9218798204095,-16.1841506958008,0.396559536457062,-16.2314531553504,-16.668420791626,-0.189784064888954
176,-16.2197730115948,-16.172327041626,0.726349949836731,-13.2823133187871,-16.6370124816895,-0.0302296169102192
177,-17.3132343430217,-16.1677932739258,0.674312055110931,-16.6685632445123,-16.6468811035156,0.0827567428350449
178,-17.9933579172552,-16.1632690429688,0.900404691696167,-16.9385123107262,-16.676851272583,0.0998099520802498
179,-14.4153396051206,-16.1480770111084,0.581790745258331,-16.4679264251331,-16.6779689788818,0.0885447561740875
180,-16.7197172033184,-16.1260299682617,0.470041930675507,-13.9823105481668,-16.6111850738525,0.0226279236376286
181,-18.2270027770683,-16.1272506713867,0.417813718318939,-19.9955719448368,-16.6503067016602,-0.196772068738937
182,-17.9933579172552,-16.1272506713867,1.06311249732971,-11.9840116151156,-16.6770210266113,-0.289145618677139
183,-19.9955719448368,-16.1402034759521,-0.00209379196166992,-16.1782406638671,-16.6910343170166,-0.0133271887898445
184,-9.713622506195,-16.0850219726562,1.15480601787567,-17.0275075260372,-16.7381038665771,0.155888274312019
185,-20.7850456290473,-16.1228103637695,0.731437921524048,-4.92937700476847,-16.651029586792,0.15800715982914
186,-18.969261531713,-16.1117057800293,0.592492341995239,-17.0031920824447,-16.6675186157227,0.110720261931419
187,-18.2240984351281,-16.0903053283691,0.566158056259155,-14.1986669430061,-16.6595211029053,-0.00331392744556069
188,-18.6847159419466,-16.1251983642578,1.10800814628601,-20.0573003398985,-16.7047786712646,-0.100063793361187
189,-15.9906536978604,-16.0718040466309,1.08892226219177,-11.9867158345104,-16.6909217834473,-0.0198360495269299
190,-13.0927072672895,-16.0407333374023,0.783068180084229,-13.3291071388582,-16.6598434448242,0.143138661980629
191,-19.9955719448368,-16.0674648284912,0.0650972425937653,-9.61240878367298,-16.644718170166,0.210966140031815
192,-18.4999129571196,-16.0526695251465,0.598804652690887,-13.3778187509809,-16.6457500457764,0.175652548670769
193,-9.97038198832205,-16.0395374298096,1.06761503219604,-19.9955719448368,-16.6664276123047,0.229457452893257
194,-13.9884396702788,-15.9861421585083,1.16945147514343,-15.9884396702788,-16.6394939422607,0.34679913520813
195,-20.8030253609859,-16.0048732757568,0.934281945228577,-20.5545781560169,-16.6235198974609,0.449258923530579
196,-10.395943350574,-15.9237356185913,0.965526163578033,-22.3235002581327,-16.6470336914062,0.348069936037064
197,-21.2100566245025,-15.9852828979492,0.662014126777649,-13.4381319082556,-16.6433811187744,-0.100364811718464
198,-14.7095904916153,-15.9879264831543,0.724429130554199,-20.1314942749339,-16.6664218902588,-0.480229735374451
199,-16.7411438896736,-16.0167922973633,0.630145311355591,-15.9911438896736,-16.6753063201904,-0.589729130268097
200,-14.0479116166871,-16.0167293548584,0.599842190742493,-16.8823355995182,-16.6659469604492,-0.452301472425461
201,-13.9835214233024,-15.9766502380371,0.995689272880554,-17.9933579172552,-16.6749019622803,-0.330498516559601
202,-20.5656202540155,-16.0204658508301,0.949766397476196,-17.2809989621374,-16.7187767028809,-0.253594368696213
203,-15.9933579172552,-15.9985599517822,1.11064743995667,-17.9955719448368,-16.703441619873,-0.165427148342133
204,-8.25486445882878,-15.9622688293457,0.788979291915894,-21.9977859724184,-16.7224178314209,-0.230770021677017
205,-13.9802184822749,-15.931960105896,1.04994213581085,-11.9813073957208,-16.6689910888672,-0.254072397947311
206,-12.6442287440354,-15.9015588760376,0.959707260131836,-13.9862256426972,-16.62255859375,-0.0683605968952179
207,-17.4621238808051,-15.8579740524292,0.722804188728333,-18.927568443571,-16.6342639923096,0.0925495103001595
208,-9.97909336813917,-15.8178939819336,1.156165599823,-17.9933579172552,-16.647611618042,0.0240780841559172
209,-14.0576542141258,-15.7910223007202,1.11747574806213,-11.303339346208,-16.6128578186035,0.0425560772418976
210,-12.4591497366625,-15.748854637146,1.30751085281372,-21.9977859724184,-16.6476669311523,0.0679004713892937
211,-15.680850800157,-15.753737449646,1.0771598815918,-9.81063479141122,-16.5931339263916,0.0534300915896893
212,-15.9884396702788,-15.7127542495728,-0.440071731805801,-17.9955719448368,-16.6360607147217,0.100359737873077
213,-17.9955719448368,-15.752890586853,1.04294800758362,-10.2362441024537,-16.5976982116699,0.166849553585052
214,-19.9955719448368,-15.7795867919922,1.18605542182922,-17.9933579172552,-16.5780029296875,0.248079136013985
215,-19.9955719448368,-15.7795867919922,1.16027998924255,-13.3272757267536,-16.552942276001,0.349497675895691
216,-15.9911438896736,-15.7657442092896,1.15964090824127,-15.9911438896736,-16.5583400726318,0.427369087934494
217,-17.9955719448368,-15.7524108886719,1.08927273750305,-12.2432708743748,-16.5467224121094,0.386215209960938
218,-16.5207084013179,-15.7789325714111,0.709108233451843,-18.8209441241517,-16.5467834472656,0.057463213801384
219,-19.9955719448368,-15.8189783096313,0.949981212615967,-13.988929862092,-16.546802520752,-0.309150904417038
220,-11.96796307299,-15.7639293670654,1.26373958587646,-17.9906536978604,-16.5404853820801,-0.215950354933739
221,-14.7908233438466,-15.7811489105225,1.1136748790741,-17.0229224288995,-16.5046768188477,0.0498701930046082
222,-10.7095182377626,-15.732590675354,1.21273720264435,-16.07398412636,-16.4785346984863,-0.0212402604520321
223,-18.0312968131359,-15.7729654312134,-0.453383177518845,-21.3955719448368,-16.5145835876465,-0.202744975686073
224,-17.9906536978604,-15.7881107330322,1.24435997009277,-18.9348213318893,-16.5608787536621,-0.527607560157776
225,-16.0783273107282,-15.7753763198853,0.692187130451202,-13.4109779072504,-16.5751190185547,-0.575916171073914
226,-18.7914799829829,-15.8013219833374,0.253374367952347,-16.06603784927,-16.5339069366455,-0.573494851589203
227,-9.93176526987897,-15.7475957870483,0.730304837226868,-17.9933579172552,-16.503568649292,-0.431499123573303
228,-17.9906536978604,-15.8410758972168,1.21212136745453,-17.9933579172552,-16.503568649292,-0.260194331407547
229,-13.4178555127746,-15.8318033218384,1.17115139961243,-13.4793387179193,-16.5081844329834,-0.0502191297709942
230,-18.9040722029695,-15.8248586654663,0.960338056087494,-15.6826542141258,-16.4924373626709,0.0993801057338715
231,-15.9933579172552,-15.8516063690186,1.20528483390808,-11.9862256426972,-16.4523887634277,0.0763736143708229
232,-11.1209373397704,-15.8907012939453,1.11190283298492,-17.9933579172552,-16.4751720428467,0.489579796791077
233,-8.56862393483937,-15.8679504394531,1.02442443370819,-20.5823982921422,-16.4924507141113,0.0737178027629852
234,-16.4117709538426,-15.8855667114258,1.18520021438599,-11.4315017295458,-16.4781665802002,0.0475744158029556
235,-19.992867725442,-15.8808526992798,1.06902956962585,-11.0743901801266,-16.432056427002,0.171777844429016
236,-9.87511651271765,-15.8000354766846,-0.222290948033333,-12.3867158345104,-16.4056015014648,0.220197588205338
237,-14.9215786722823,-15.7890367507935,0.466350615024567,-12.3802342099181,-16.3681983947754,0.161570638418198
238,-14.8835333994019,-15.754958152771,0.618341565132141,-15.2673869835962,-16.3366775512695,0.172764092683792
239,-17.0785297603689,-15.7431936264038,0.537915945053101,-16.0244757063148,-16.3400974273682,0.0610374249517918
240,-19.1848472789573,-15.7244415283203,-0.102747201919556,-16.9246098830447,-16.3997669219971,0.0575205124914646
241,-15.9862256426972,-15.7010612487793,-0.512799859046936,-17.3554849749449,-16.444263458252,0.139610290527344
242,-17.9955719448368,-15.6846227645874,-0.137698203325272,-7.94586200772895,-16.3791122436523,0.21915902197361
243,-15.4079116672048,-15.7031574249268,1.26170694828033,-17.2838268165029,-16.3343372344971,0.415289670228958
244,-15.2577470663931,-15.6847724914551,0.867564082145691,-14.448591234095,-16.3302516937256,0.55104649066925
245,-12.9467519584867,-15.6644611358643,1.19868850708008,-19.9955719448368,-16.3629703521729,0.391360998153687
246,-16.9326257167904,-15.6685628890991,0.760062098503113,-6.32079830288348,-16.2690620422363,0.036662332713604
247,-16.1804930020996,-15.6164321899414,0.271979063749313,-13.1232292293813,-16.2418594360352,-0.107289977371693
248,-16.9637466293996,-15.6265459060669,-0.262567013502121,-14.4245818070807,-16.238712310791,1.30375850200653
249,-12.1176710320844,-15.5724010467529,1.3614627122879,-17.9906536978604,-16.2253475189209,-0.173585638403893
250,-18.9933579172552,-15.5759000778198,1.29772102832794,-11.9010934919775,-16.2040424346924,-0.198285922408104
251,-17.9933579172552,-15.6236200332642,1.19987094402313,-17.9906536978604,-16.1773300170898,-0.0323292203247547
252,-12.7302463141321,-15.599892616272,1.10347950458527,-17.9933579172552,-16.1989364624023,0.210442543029785
253,-19.1740856505231,-15.6722383499146,-0.00534158945083618,-16.6984988418764,-16.2347240447998,0.318170249462128
254,-11.988929862092,-15.6281156539917,1.15955054759979,-19.992867725442,-16.269926071167,0.4164679646492
255,-18.2287489359556,-15.6258020401001,1.08936953544617,-15.9933579172552,-16.2427387237549,0.457632571458817
256,-24,-15.6900997161865,0.979034304618835,-24,-16.2560863494873,0.405954509973526
257,-18.8477965550032,-15.7319955825806,0.751364827156067,-16.8196085014476,-16.2669239044189,0.331173598766327
258,-18.8190850704094,-15.7339906692505,1.23783349990845,-11.5428188583352,-16.231653213501,0.217366144061089
259,-18.8172432932361,-15.7825241088867,1.07329058647156,-18.7448030039604,-16.2463226318359,0.17571946978569
260,-17.0239307749195,-15.7760610580444,1.10802936553955,-13.6583567902382,-16.2011528015137,0.23556786775589
261,-17.9955719448368,-15.8294496536255,1.20954072475433,-12.0469699719347,-16.161527633667,0.26301097869873
262,-12.2184839780665,-15.7642545700073,1.1975359916687,-13.3390412009144,-16.1529750823975,0.330172538757324
263,-9.97909336813917,-15.7242107391357,1.28518462181091,-15.9933579172552,-16.1329975128174,0.36554279923439
264,-16.2882146734701,-15.7662563323975,0.814119160175323,-9.98401161511558,-16.0796012878418,0.402129799127579
265,-8.84990676526835,-15.7247085571289,0.832546770572662,-18.5817411056855,-16.0774765014648,0.521774649620056
266,-15.9911438896736,-15.738076210022,1.2450544834137,-17.9906536978604,-16.0641117095947,0.65348219871521
267,-16.8998320753421,-15.7631120681763,1.32013285160065,-5.5013926356198,-15.9613428115845,0.692529737949371
268,-16.6853410396181,-15.7734403610229,0.743873834609985,-14.3786307059883,-15.9309549331665,0.150492548942566
269,-13.4534951831907,-15.7725553512573,1.10789370536804,-11.617814432017,-15.8884525299072,0.160643249750137
270,-15.9938803571415,-15.7473192214966,1.18243598937988,-10.0896518132503,-15.8643388748169,0.951326370239258
271,-14.5527521925331,-15.7473077774048,0.348891377449036,-15.4082834936493,-15.9005746841431,0.637891530990601
272,-18.5186743729514,-15.7908725738525,0.802726149559021,-7.20110254729415,-15.8553400039673,0.461803168058395
273,-17.7541716402913,-15.8316211700439,1.42336332798004,-11.4803325845285,-15.8297691345215,0.363247752189636
274,-19.3899584838274,-15.8351860046387,0.92962908744812,-17.1526169774923,-15.7947034835815,0.416430234909058
275,-10.9689220510533,-15.7912273406982,-0.0755887627601624,-13.4019082540899,-15.7492351531982,0.374236792325974
276,-12.0283614597883,-15.7514619827271,0.379564136266708,-14.5290827855543,-15.7795381546021,0.264564096927643
277,-16.9159759021628,-15.7576465606689,0.871772468090057,-13.9862256426972,-15.8049020767212,0.0381034798920155
278,-9.97909336813917,-15.6985893249512,1.27754127979279,-15.9884396702788,-15.7698812484741,-0.0188403259962797
279,-17.9906536978604,-15.6927976608276,1.23434948921204,-13.9835214233024,-15.7795867919922,0.234785079956055
280,-13.9835214233024,-15.6927471160889,0.733426094055176,-20.3177195958435,-15.7950830459595,0.438278764486313
281,-19.0032589073542,-15.685507774353,0.387116461992264,-18.4983084123047,-15.7978258132935,0.158253863453865
282,-17.9955719448368,-15.6798830032349,-0.0800845623016357,-15.9884396702788,-15.7910575866699,-0.300881654024124
283,-14.9101897046117,-15.6593294143677,0.46625617146492,-8.81339186517463,-15.7270555496216,-0.202586084604263
284,-14.1944040813589,-15.6263017654419,0.71589207649231,-7.08018119582469,-15.7103576660156,0.155660465359688
285,-12.9599174112387,-15.62548828125,0.984592914581299,-19.5679610918584,-15.743932723999,0.263053297996521
286,-16.6683579172552,-15.6320247650146,1.36064004898071,-20.0205719448368,-15.7915058135986,0.099133126437664
287,-15.34336849984,-15.6448240280151,1.0885636806488,-10.864963996068,-15.7172870635986,0.0408694185316563
288,-14.9045297164452,-15.6108856201172,1.13054060935974,-20.9089577716084,-15.7768259048462,0.178620293736458
289,-19.9977859724184,-15.6242980957031,0.715509474277496,-15.9724007579046,-15.7530860900879,0.159810319542885
290,-13.3437238453314,-15.6620655059814,1.16414546966553,-12.6777660276189,-15.7362432479858,0.0466144979000092
291,-15.9933579172552,-15.6353845596313,1.27243089675903,-13.9835214233024,-15.7095098495483,0.170169427990913
292,-15.9911438896736,-15.6620979309082,1.22771620750427,-9.97909336813917,-15.6293859481812,0.499627351760864
293,-14.3041472533963,-15.6717710494995,1.04726362228394,-14.0813475102589,-15.5874919891357,0.696100533008575
294,-5.14079226241232,-15.6128025054932,1.49202370643616,-10.326439777761,-15.5363960266113,0.739632368087769
295,-18.2991831599736,-15.6370410919189,1.23803532123566,-16.6853186469551,-15.5507030487061,0.732152938842773
296,-12.231070438645,-15.6156253814697,1.33742809295654,-19.6612419331545,-15.5428676605225,0.637981414794922
297,-14.999383537434,-15.6090116500854,1.04099988937378,-7.25652645389905,-15.4846744537354,0.561404287815094
298,-16.1334853057902,-15.6025323867798,0.600533664226532,-14.3447269868908,-15.4681558609009,0.657204031944275
299,-18.6410851899825,-15.6549434661865,0.501550018787384,-15.9884396702788,-15.4681234359741,0.755931913852692
300,-11.9813073957208,-15.6623697280884,1.02618896961212,-15.9884396702788,-15.4518165588379,0.740447640419006
301,-13.9802184822749,-15.7122268676758,1.46339464187622,-19.4427961195024,-15.4329557418823,0.714765965938568
302,-15.9911438896736,-15.71022605896,1.4095915555954,-9.96574904540835,-15.3986034393311,0.764294922351837
303,-7.98179758753398,-15.6946420669556,1.27195954322815,-15.9911438896736,-15.3852396011353,0.837132692337036
304,-12.502704938218,-15.7012500762939,1.23953342437744,-13.9384702204753,-15.4086866378784,0.888251960277557
305,-14.4997391562107,-15.7220783233643,1.2987220287323,-16.6848375833673,-15.3945016860962,0.855071187019348
306,-14.4723367538083,-15.711953163147,1.16065096855164,-13.2617893928934,-15.3629570007324,0.761428356170654
307,-19.9955719448368,-15.7058725357056,1.47283279895782,-14.2334118697527,-15.3801136016846,0.720927059650421
308,-14.6002835738824,-15.7221517562866,0.974431097507477,-12.5495444199898,-15.365891456604,0.772900402545929
309,-12.0601386013589,-15.677453994751,0.961674630641937,-20.8573230969105,-15.3449411392212,0.754213690757751
310,-15.9884396702788,-15.6589660644531,0.754114151000977,-15.9884396702788,-15.3515815734863,0.665108144283295
311,-22.0654551453507,-15.7067499160767,1.09631371498108,-11.0091685561091,-15.3178091049194,0.59944349527359
312,-20.4882548716661,-15.7289552688599,1.22286748886108,-14.8713664995471,-15.3250179290771,0.505076110363007
313,-19.9955719448368,-15.7496824264526,-0.20131117105484,-17.1007992208406,-15.312313079834,0.404510080814362
314,-18.5202396376853,-15.7439403533936,0.752909660339355,-14.9459191094038,-15.3141622543335,0.451314598321915
315,-13.3237906206404,-15.7154846191406,1.22493767738342,-17.4441825637067,-15.2704553604126,0.55325984954834
316,-11.988929862092,-15.7155570983887,1.31794226169586,-13.9862256426972,-15.2704553604126,0.520135402679443
317,-14.7616571348193,-15.6904134750366,1.08669793605804,-16.6502347987645,-15.2615022659302,0.52443939447403
318,-19.7793860922266,-15.7423830032349,1.11614012718201,-18.392418950119,-15.2908773422241,0.573961079120636
319,-16.5947388828772,-15.7330436706543,1.04267430305481,-9.97530023529847,-15.2325601577759,0.616634666919708
320,-13.9862256426972,-15.7579097747803,1.34387469291687,-16.8196085014476,-15.2347850799561,0.650244772434235
321,-12.8866926403618,-15.7356491088867,1.23474705219269,-18.7908262716856,-15.2297782897949,0.618069529533386
322,-11.0486257760622,-15.701135635376,0.66214120388031,-20.7797446067073,-15.2483720779419,0.614045977592468
323,-15.9884396702788,-15.7144689559937,0.780520260334015,-12.6379763387121,-15.2640628814697,0.530572474002838
324,-7.09909293516236,-15.628493309021,1.18786704540253,-16.8704272479185,-15.2772541046143,0.438233017921448
325,-21.9977859724184,-15.6623306274414,1.0651707649231,-15.9911438896736,-15.275652885437,0.545282125473022
326,-16.6509666129074,-15.6652069091797,0.757786273956299,-11.9704114866843,-15.2669076919556,0.64782726764679
327,-14.8434396702788,-15.6487417221069,0.902341187000275,-10.136797587534,-15.2233629226685,0.678950130939484
328,-14.65473392999,-15.6264839172363,1.11194825172424,-12.4198690886113,-15.1932392120361,0.738869726657867
329,-15.5673870386998,-15.6341648101807,1.03039145469666,-10.913117466461,-15.1562061309814,0.727709472179413
330,-8.64088849662489,-15.5803060531616,1.22846853733063,-16.6502347987645,-15.1739921569824,0.600395143032074
331,-17.9846465374381,-15.5786895751953,-0.0838978886604309,-9.38640315008137,-15.1032648086548,-0.164744794368744
332,-13.9862256426972,-15.5519762039185,1.5050733089447,-7.97958355995238,-15.0765686035156,0.74683940410614
333,-11.0117745342015,-15.4920845031738,1.37063026428223,-13.9884396702788,-15.0619697570801,0.852811813354492
334,-10.8256542147,-15.4994974136353,-0.0659940242767334,-14.6638470782605,-15.0462112426758,0.840010523796082
335,-8.63190973712863,-15.4184761047363,1.21688771247864,-17.9933579172552,-15.1333036422729,0.795007884502411
336,-11.1050590297767,-15.3660478591919,0.886116147041321,-13.0937334312237,-15.1072416305542,-0.201144933700562
337,-18.8846622650813,-15.3704528808594,0.953919172286987,-12.8318377020721,-15.0981283187866,0.682384610176086
338,-17.0086002487758,-15.3592777252197,0.719828307628632,-20.9456966331161,-15.1040506362915,0.658801436424255
339,-20.1285199217154,-15.3868656158447,0.638143479824066,-15.9911438896736,-15.1307468414307,0.427569776773453
340,-17.3461734754724,-15.4152212142944,-0.588948905467987,-13.5806458384234,-15.1324253082275,0.162661835551262
341,-15.7888572216445,-15.3871765136719,1.34953761100769,-13.8573509147236,-15.1607255935669,0.0661339983344078
342,-12.3105672889926,-15.3459148406982,1.3891464471817,-8.95840577466848,-15.1312627792358,0.223720878362656
343,-11.96796307299,-15.3592319488525,1.34194350242615,-13.4409846566125,-15.0875654220581,0.448491454124451
344,-12.1419063519577,-15.3469209671021,1.36192548274994,-17.9933579172552,-15.1009311676025,0.584501147270203
345,-18.8400245839219,-15.3338327407837,0.967284917831421,-16.5444772230069,-15.074197769165,0.643446207046509
346,-15.3547835206286,-15.3668928146362,0.997772336006165,-13.3437677126766,-15.0143327713013,0.588966131210327
347,-16.1430426238508,-15.3331117630005,-0.256186425685883,-12.8954040201789,-15.0107145309448,-1.38620376586914
348,-14.2087100818722,-15.3297739028931,0.0964097082614899,-9.98179758753398,-14.9430503845215,0.0107178688049316
349,-17.9846465374381,-15.3380651473999,1.29442322254181,-17.9955719448368,-14.9564123153687,0.753880321979523
350,-15.1016316595228,-15.3450899124146,1.04994940757751,-8.50443839567568,-14.900559425354,0.816157162189484
351,-13.988929862092,-15.3451251983643,1.32830631732941,-15.9884396702788,-14.8871927261353,0.920872628688812
352,-12.0196105713525,-15.2881507873535,1.21415901184082,-17.3673143982524,-14.8877687454224,0.904347598552704
353,-8.2118978211609,-15.2362747192383,0.701790928840637,-13.9884396702788,-14.8610544204712,0.755830526351929
354,-17.9906536978604,-15.3011798858643,1.41993856430054,-5.93764081972505,-14.7539863586426,0.985663294792175
355,-12.8856339267208,-15.2938814163208,1.36626732349396,-16.1804930020996,-14.7819805145264,0.862866520881653
356,-12.1104483967248,-15.2903242111206,1.10784161090851,-15.1060864184092,-14.7894468307495,0.900625824928284
357,-16.9933579172552,-15.2871990203857,1.30656921863556,-16.5516039567995,-14.773606300354,0.669633209705353
358,-19.9955719448368,-15.3539762496948,1.21119511127472,-15.9906536978604,-14.7602558135986,0.491128414869308
359,-15.9933579172552,-15.3668794631958,1.16064596176147,-11.9840116151156,-14.7647933959961,0.570127487182617
360,-19.9955719448368,-15.4171228408813,1.02822089195251,-16.7996545279715,-14.7301397323608,0.758675992488861
361,-13.6968607620466,-15.4038963317871,1.28497636318207,-16.8072802499889,-14.7767839431763,0.621322095394135
362,-13.9802184822749,-15.3905076980591,1.23008346557617,-11.9840116151156,-14.7367057800293,0.537174820899963
363,-21.2107618182545,-15.4119434356689,0.189272165298462,-18.347788297002,-14.7907810211182,-0.974377930164337
364,-13.9862256426972,-15.3718814849854,1.51887667179108,-14.3789722146575,-14.7666864395142,0.861509680747986
365,-9.96574904540835,-15.3050165176392,1.36691963672638,-9.98179758753398,-14.7443828582764,0.924287915229797
366,-18.4995507813899,-15.321738243103,1.28327333927155,-18.0954156026223,-14.7584114074707,0.992510914802551
367,-16.3494554782308,-15.3107652664185,0.831201136112213,-18.3494554782308,-14.7991189956665,0.888191163539886
368,-19.9955719448368,-15.3339309692383,0.947589814662933,-13.9862256426972,-14.7668876647949,0.80843722820282
369,-17.0788631879192,-15.3144855499268,1.11879289150238,-15.9824325098565,-14.7801790237427,0.832024216651917
370,-11.4182221414314,-15.3108205795288,1.81282269954681,-16.4226501965946,-14.7697248458862,-0.706725418567657
371,-14.6453165517881,-15.309850692749,0.867278337478638,-16.8945529805827,-14.7688703536987,0.412941575050354
372,-1.96043696454975,-15.2515230178833,1.12272524833679,-5.97357639953007,-14.7015333175659,0.591483473777771
373,-15.3926123323933,-15.2339324951172,0.209951162338257,-20.8137537630186,-14.6976547241211,-0.577908337116241
374,-10.8011116854239,-15.1860027313232,1.24648714065552,-11.0746347694131,-14.6452541351318,0.901117026805878
375,-20.1817421576028,-15.213357925415,1.25807642936707,-14.3851618129099,-14.6517496109009,0.880351960659027
376,-17.0999638338476,-15.2020797729492,0.775030851364136,-16.6427147632156,-14.6555938720703,0.935418963432312
377,-11.9840116151156,-15.2157621383667,1.38075625896454,-15.9884396702788,-14.6422262191772,0.970009386539459
378,-13.2172624519005,-15.1839389801025,1.07850313186646,-11.0626633005088,-14.596022605896,1.00083494186401
379,-18.3174319913293,-15.2166032791138,0.892592668533325,-16.3593002324624,-14.6152229309082,1.0328369140625
380,-12.8905536711903,-15.176513671875,0.911563456058502,-9.62395318122328,-14.5748310089111,0.981545746326447
381,-14.1655734687841,-15.1643257141113,0.920880138874054,-19.9955719448368,-14.6282262802124,0.826555907726288
382,-8.67280525814906,-15.1480073928833,-0.0934469178318977,-16.4180154515018,-14.6177244186401,1.64078271389008
383,-3.9376499817483,-15.1171350479126,1.44966113567352,-17.9906536978604,-14.6004457473755,0.544710755348206
384,-24,-15.1677227020264,0.902044117450714,-12.2658093327421,-14.6060094833374,0.597542881965637
385,-16.69432202322,-15.1457328796387,0.604962944984436,-9.41475287011831,-14.5949449539185,0.681904792785645
386,-14.6975305793697,-15.1778812408447,0.679242014884949,-16.8975305793697,-14.6250162124634,-0.232178032398224
387,-9.29515554430497,-15.1403713226318,1.26727652549744,-12.6183499950288,-14.6266050338745,0.64324551820755
388,-13.988929862092,-15.1344079971313,-0.0476383306086063,-11.1030592341632,-14.5988426208496,0.627122700214386
389,-8.43608024887094,-15.0767917633057,1.2802197933197,-16.942985249447,-14.6049661636353,0.826640129089355
390,-18.1290184777346,-15.0697526931763,1.05509066581726,-17.0248044581357,-14.6056327819824,0.766133189201355
391,-16.6948475933773,-15.0744771957397,1.28285813331604,-17.9933579172552,-14.6098861694336,0.580953896045685
392,-19.9955719448368,-15.0878105163574,0.170152008533478,-13.9701771005716,-14.6500473022461,-1.002521276474
393,-16.7741539559931,-15.0969190597534,0.705692827701569,-20.9785820111563,-14.6746797561646,-1.4026050567627
394,-17.8332672564857,-15.114089012146,-0.581600069999695,-22.546636547131,-14.7286672592163,-0.861173689365387
395,-15.9933579172552,-15.1343994140625,1.3617342710495,-5.96353501782675,-14.6351184844971,0.784191191196442
396,-17.9933579172552,-15.1414709091187,1.29262506961823,-13.988929862092,-14.686240196228,0.960902333259583
397,-7.97909336813917,-15.0867938995361,1.4104151725769,-11.9867158345104,-14.6786642074585,1.04623866081238
398,-21.3857248682991,-15.1162729263306,1.35073268413544,-17.1285925937411,-14.6966896057129,1.06414270401001
399,-14.3304116892088,-15.1310253143311,1.2599002122879,-16.1492834245573,-14.6844139099121,0.972302973270416
400,-12.8789945537032,-15.0902633666992,1.44073605537415,-11.8641753166278,-14.6841678619385,0.395934998989105
401,-8.61353145991366,-15.0277309417725,1.51911342144012,-16.1247956615295,-14.6717281341553,0.682491362094879
402,-11.9840116151156,-15.0227575302124,1.90634500980377,-12.4340911524146,-14.6346683502197,-0.0926505923271179
403,-13.9786640215327,-14.9881200790405,1.20557427406311,-12.67632518647,-14.607852935791,0.847563564777374
404,-12.8638108065774,-14.9939517974854,0.814111828804016,-14.4186072680441,-14.5706920623779,0.935078382492065
405,-13.5294661605701,-14.9626235961914,0.330637127161026,-12.4363430420794,-14.5469779968262,0.978017032146454
406,-13.9862256426972,-14.8958654403687,1.33947598934174,-9.98179758753398,-14.4535236358643,1.04892945289612
407,-13.3676148443037,-14.8593311309814,1.38591921329498,-19.9955719448368,-14.4746971130371,1.0707014799118
408,-15.9911438896736,-14.8404788970947,0.382299959659576,-9.54462127604144,-14.4613752365112,-0.596833467483521
409,-17.9955719448368,-14.835000038147,0.198822200298309,-15.9884396702788,-14.4429998397827,-0.326880037784576
410,-12.9678479099821,-14.8079605102539,1.44829273223877,-13.9824325098565,-14.4451599121094,1.10158967971802
411,-19.9955719448368,-14.8212938308716,-0.410709053277969,-15.4640413423559,-14.4679393768311,-0.644327938556671
412,-13.0584950794833,-14.8268947601318,1.56286430358887,-12.7367402214053,-14.463924407959,1.00499296188354
413,-10.6858495987093,-14.8316049575806,1.42392838001251,-15.9933579172552,-14.463924407959,1.03358781337738
414,-20.3452892477273,-14.8586521148682,1.17713713645935,-15.9884396702788,-14.5039529800415,0.877611756324768
415,-11.9813073957208,-14.8795280456543,1.52398943901062,-15.9933579172552,-14.4866971969604,0.81027352809906
416,-13.988929862092,-14.8661804199219,1.44503092765808,-17.0109458698716,-14.4801664352417,0.871124863624573
417,-12.3222631954253,-14.8356637954712,1.60024666786194,-18.3266912505885,-14.5656690597534,0.892057299613953
418,-14.6747937364375,-14.8222589492798,0.45754399895668,-16.4805862671374,-14.5796813964844,0.816900312900543
419,-14.8948122150332,-14.8318681716919,1.44969916343689,-7.00995943062302,-14.5489616394043,0.838940143585205
420,-12.5416938691507,-14.8088541030884,0.80267059803009,-16.7082464335638,-14.5930862426758,0.83038467168808
421,-13.0678874823009,-14.7989549636841,0.799097537994385,-14.7277528581473,-14.5885496139526,0.835139691829681
422,-13.2352206632789,-14.7637319564819,0.680316627025604,-14.8388741612994,-14.6394681930542,0.741504848003387
423,-20.8500023245836,-14.7843704223633,1.37541091442108,-17.9955719448368,-14.6829032897949,0.608782231807709
424,-18.867794167059,-14.7808885574341,0.54783695936203,-12.6673449484489,-14.653000831604,0.503959596157074
425,-13.3929658345104,-14.7970495223999,1.28715348243713,-13.9802184822749,-14.6568574905396,0.756521701812744
426,-17.9955719448368,-14.8368310928345,1.46526515483856,-16.8223127208424,-14.6721448898315,0.834892094135284
427,-14.4612256426972,-14.8204650878906,1.79657793045044,-13.0780044546933,-14.666090965271,0.882102489471436
428,-11.9813073957208,-14.8338136672974,1.32929754257202,-19.9955719448368,-14.6928043365479,0.97219842672348
429,-20.7009983014259,-14.851881980896,1.61260688304901,-13.4125822318445,-14.6889972686768,1.06909239292145
430,-14.1549003414924,-14.8530244827271,1.39906561374664,-8.5547024017564,-14.610577583313,0.686581254005432
431,-15.8918424834512,-14.8322820663452,1.15694642066956,-18.6875326745367,-14.6118392944336,0.902766227722168
432,-13.9802184822749,-14.8055124282837,0.848154008388519,-20.530455665767,-14.6421194076538,0.645953714847565
433,-10.9313800361682,-14.7789878845215,1.50676107406616,-14.2893895037087,-14.6786260604858,0.442513525485992
434,-18.3611740092092,-14.8067655563354,0.756267905235291,-13.9802184822749,-14.7246255874634,0.427499622106552
435,-18.5906733534968,-14.8443050384521,0.0963765382766724,-11.988929862092,-14.6740980148315,0.633845686912537
436,-14.0446426637787,-14.8268127441406,1.02217066287994,-14.5602311273107,-14.6376972198486,0.822225868701935
437,-14.2302184822749,-14.8193912506104,0.867778301239014,-12.9423449484489,-14.6515464782715,0.785683453083038
438,-13.9835214233024,-14.8132514953613,1.37671947479248,-5.97958355995238,-14.5520162582397,0.709175646305084
439,-19.4881948282457,-14.8098554611206,1.30519843101501,-19.9955719448368,-14.5788383483887,0.833544969558716
440,-13.9862256426972,-14.8141393661499,1.53577589988708,-13.9862256426972,-14.5875616073608,1.0208352804184
441,-11.2633509855922,-14.7826042175293,1.45411372184753,-17.090445295896,-14.6082744598389,1.08112752437592
442,-19.1373908390659,-14.8035802841187,1.21610486507416,-14.8709993052486,-14.6408853530884,0.956975936889648
443,-18.5362150601123,-14.8317937850952,1.25101685523987,-11.6112056304288,-14.6244192123413,0.876075446605682
444,-19.9955719448368,-14.9308252334595,1.42093849182129,-11.96796307299,-14.6353616714478,0.870469808578491
445,-15.9911438896736,-14.9154396057129,1.28665947914124,-7.98179758753398,-14.5773391723633,0.906520545482635
446,-9.98401161511558,-14.9004592895508,1.40968215465546,-7.97417512116276,-14.4994258880615,1.03036570549011
447,-14.5201245855613,-14.8972635269165,1.23601770401001,-20.1739757007053,-14.5855417251587,1.15056228637695
448,-15.2642921809326,-14.8914680480957,-0.0317975282669067,-15.9906536978604,-14.5965156555176,0.582232415676117
449,-16.3225724611022,-14.876012802124,0.180308282375336,-11.3276647967106,-14.5654430389404,1.13658463954926
450,-19.1245054582388,-14.9236326217651,0.701875269412994,-14.1425376025555,-14.5531368255615,1.15181386470795
451,-12.9083035647751,-14.9164876937866,1.37728786468506,-16.540874068298,-14.5337905883789,1.0305427312851
452,-14.4874648590865,-14.9064617156982,0.455151379108429,-10.3209122946734,-14.5361576080322,-0.841638326644897
453,-19.9977859724184,-14.9865694046021,1.15293550491333,-18.7803401657759,-14.5547523498535,0.896041214466095
454,-8.99623449897584,-14.9631929397583,1.23588013648987,-18.0064415100542,-14.5818719863892,-0.78298807144165
455,-21.9977859724184,-15.0131807327271,0.972049534320831,-11.9840116151156,-14.5505323410034,0.993999481201172
456,-11.9840116151156,-14.9965906143188,1.30768227577209,-13.988929862092,-14.5553789138794,1.16552317142487
457,-17.0221954564515,-14.976767539978,1.17588496208191,-15.4774560513357,-14.5636739730835,0.87225753068924
458,-11.978603176326,-14.9592905044556,1.48998165130615,-15.9884396702788,-14.5866003036499,0.200479164719582
459,-16.8417536457712,-14.9911670684814,1.3265495300293,-19.8744554782308,-14.5800476074219,-0.100299902260303
460,-8.68676275894738,-14.9424905776978,1.58431911468506,-16.5851946519491,-14.5840253829956,-0.00201436481438577
461,-15.9884396702788,-14.9019756317139,1.4292699098587,-19.9955719448368,-14.6439342498779,0.113374173641205
462,-11.3640698939608,-14.8411493301392,1.22318351268768,-14.4932678962183,-14.641414642334,0.339952915906906
463,-18.6168219221594,-14.831955909729,0.773372173309326,-16.7080658385031,-14.6387958526611,0.492480456829071
464,-7.57925687418634,-14.7590169906616,1.58698892593384,-17.9361438896736,-14.658730506897,0.614857792854309
465,-12.4831187122082,-14.7534112930298,1.43693566322327,-13.7501986654753,-14.6341047286987,0.683287620544434
466,-17.9906536978604,-14.7934226989746,1.53312826156616,-9.97579042711168,-14.6073684692383,0.780067145824432
467,-18.1649555503913,-14.8161115646362,0.939659833908081,-12.1468978684346,-14.5773458480835,1.0387749671936
468,-16.5917831141056,-14.7948617935181,0.611090481281281,-12.8973974418872,-14.5407133102417,1.13366401195526
469,-17.9955719448368,-14.8042011260986,1.02169978618622,-18.1717616731237,-14.5953550338745,1.13039541244507
470,-8.21102568202098,-14.765700340271,1.26181769371033,-17.9933579172552,-14.6031799316406,1.10392987728119
471,-3.96914834436687,-14.7062482833862,1.16688597202301,-9.98179758753398,-14.5444526672363,1.09284102916718
472,-15.8651203382825,-14.7383575439453,1.28386998176575,-16.7513050077765,-14.5175971984863,1.17601835727692
473,-8.9242477616102,-14.6912631988525,1.94400632381439,-12.8546466953288,-14.5190410614014,1.14859676361084
474,-5.41292081350691,-14.6800231933594,1.0839467048645,-14.2898451883749,-14.5018377304077,1.05287349224091
475,-15.0225892790608,-14.6335220336914,0.549734115600586,-16.0525662257284,-14.5022478103638,0.931591808795929
476,-12.6675012906634,-14.6069660186768,0.78171181678772,-14.6647970712686,-14.5202102661133,0.937073707580566
477,-10.0830673020865,-14.5752296447754,1.42282557487488,-9.37470551117189,-14.5151281356812,1.05236625671387
478,-12.390664120867,-14.5601367950439,1.51124405860901,-19.9955719448368,-14.5656328201294,1.14528656005859
479,-16.7543971170873,-14.5680503845215,1.77890777587891,-21.9977859724184,-14.6395311355591,1.0156614780426
480,-11.3241888918818,-14.5859375,1.50005853176117,-10.2149208618943,-14.5966291427612,1.02443706989288
481,-15.1589015334801,-14.567099571228,1.66487336158752,-14.2270188438303,-14.6288995742798,1.12944042682648
482,-10.8561271433894,-14.5462322235107,1.42692768573761,-12.5805028431858,-14.6595735549927,0.837179780006409
483,-11.9867158345104,-14.5527315139771,1.49559211730957,-11.9813073957208,-14.6461935043335,1.14447605609894
484,-17.3461734754724,-14.5962009429932,0.169665515422821,-5.84118248771198,-14.5873746871948,0.430552899837494
485,-7.96353501782675,-14.5917463302612,1.37170541286469,-13.9862256426972,-14.5606603622437,1.10392355918884
486,-14.6145797157551,-14.6151428222656,0.78336364030838,-10.3556282712278,-14.542405128479,1.20442974567413
487,-15.6793473358189,-14.5937747955322,0.52681577205658,-14.6238504970126,-14.5543518066406,1.20219790935516
488,-18.5910590666805,-14.6043243408203,-0.436196029186249,-13.9437817300581,-14.5076742172241,-0.0180243253707886
489,-16.8889921564666,-14.5827264785767,1.12994265556335,-10.6801442118007,-14.4722690582275,0.851380348205566
490,-11.9840116151156,-14.5469789505005,1.23979985713959,-9.71642566521554,-14.4465055465698,0.690476834774017
491,-11.988929862092,-14.5216455459595,1.51311445236206,-11.9840116151156,-14.4340152740479,0.814775884151459
492,-12.0924645624646,-14.5201921463013,1.22749710083008,-18.8965942919198,-14.5002698898315,1.01874804496765
493,-11.9813073957208,-14.520281791687,1.46775794029236,-13.9862256426972,-14.50390625,1.16127073764801
494,-13.9862256426972,-14.5325765609741,1.4811806678772,-12.5310196319787,-14.467490196228,1.17150223255157
495,-14.8653465218181,-14.5060777664185,-0.109790325164795,-11.9862256426972,-14.4371032714844,0.858474552631378
496,-12.9998846309886,-14.4903793334961,1.5499153137207,-13.9884396702788,-14.4413995742798,0.60293984413147
497,-19.9955719448368,-14.5160627365112,0.273771822452545,-11.9780044546933,-14.4352836608887,0.458604276180267
498,-18.4683579172552,-14.5444612503052,1.33404016494751,-9.62087218013526,-14.4328775405884,0.347021877765656
499,-7.97909336813917,-14.4777574539185,1.50098919868469,-5.97136237194847,-14.3527164459229,0.385504484176636
500,-20.2145068560794,-14.5118427276611,1.57016062736511,-8.17114669996001,-14.3504943847656,0.449183881282806
501,-20.1461095792454,-14.5528907775879,1.29800200462341,-7.6030667547042,-14.2945928573608,0.578076124191284
502,-20.1199959079704,-14.6068925857544,0.443884193897247,-16.5902222306874,-14.2894124984741,0.295826137065887
503,-13.4284974998574,-14.6416711807251,0.216803908348083,-18.7062765775423,-14.3208646774292,-0.00789843872189522
504,-1.96644412497206,-14.5348424911499,1.58074867725372,-7.97687934055756,-14.3344593048096,-0.193456992506981
505,-13.988929862092,-14.542197227478,1.40616464614868,-20.8978975262321,-14.3659086227417,0.057569220662117
506,-12.8744163692698,-14.5472917556763,1.22037291526794,-18.9933579172552,-14.3918228149414,0.247587323188782
507,-14.231339968105,-14.5288772583008,1.52326047420502,-13.9126962309325,-14.374231338501,-0.0192404128611088
508,-18.0828195964779,-14.5161266326904,0.106489419937134,-12.5281003690044,-14.3511457443237,-0.205976024270058
509,-16.7093699028369,-14.520899772644,-0.355338752269745,-14.0072674290691,-14.3646354675293,-0.279089212417603
510,-17.4341539559931,-14.5038251876831,1.79658794403076,-15.9884396702788,-14.359227180481,-0.335706889629364
511,-7.97909336813917,-14.4657068252563,1.54389595985413,-11.9840116151156,-14.3270721435547,1.20865917205811
512,-10.6787153216554,-14.4436950683594,1.63041865825653,-15.7569581887973,-14.3522253036499,0.173960119485855
513,-15.9884396702788,-14.4088802337646,1.5633807182312,-14.1782406638671,-14.3244285583496,0.406265258789062
514,-11.5845018069288,-14.3928680419922,0.827100396156311,-18.0551063369454,-14.3489351272583,0.240843057632446
515,-12.3374717792824,-14.4086780548096,1.26110756397247,-14.8930394511331,-14.3816766738892,0.133903175592422
516,-7.51874452056079,-14.3354740142822,1.54987859725952,-16.9805055918013,-14.3742446899414,0.111952029168606
517,-16.7976882251921,-14.3384618759155,1.23916625976562,-14.9430589955567,-14.3515348434448,-0.0263419225811958
518,-14.7378687805033,-14.3034114837646,1.57567596435547,-14.5522486393846,-14.3553094863892,-0.101044699549675
519,-10.8260319730054,-14.2617254257202,1.38997268676758,-18.5199279655644,-14.3722248077393,0.083777628839016
520,-14.1598185884688,-14.2800035476685,1.52192854881287,-15.985735450884,-14.3693132400513,0.303730666637421
521,-13.9862256426972,-14.2756090164185,1.61237823963165,-15.9911438896736,-14.3632907867432,0.544279932975769
522,-14.7095904916153,-14.3606023788452,1.33547234535217,-15.4743667552959,-14.4266290664673,0.78468257188797
523,-8.94137638197768,-14.3175945281982,0.737938523292542,-14.4004268261291,-14.3838739395142,0.90922075510025
524,-11.4953260873096,-14.3222236633301,1.40600872039795,-10.5145078679078,-14.3801383972168,0.771676778793335
525,-13.9862256426972,-14.2809181213379,1.61824512481689,-7.97417512116276,-14.3373994827271,0.601391315460205
526,-7.92635219954216,-14.219762802124,1.73479664325714,-21.9977859724184,-14.3730993270874,0.714486956596375
527,-9.98130739572077,-14.2064094543457,1.54191565513611,-9.97800445469328,-14.3330307006836,0.669377446174622
528,-13.2916148642541,-14.2069072723389,-0.140515983104706,-13.9884396702788,-14.3525362014771,0.705453455448151
529,-14.9422004854645,-14.1844043731689,1.35948014259338,-11.9862256426972,-14.3233804702759,0.698784112930298
530,-11.4712696948194,-14.1749429702759,-0.278825998306274,-13.0810800327405,-14.3464288711548,0.471450328826904
531,-15.985735450884,-14.1870765686035,-0.0249083042144775,-10.6400254356352,-14.2840576171875,-0.366010934114456
532,-12.9137968471976,-14.2153511047363,-0.0330144762992859,-16.4004265900955,-14.2839403152466,-0.175727367401123
533,-7.97687934055756,-14.2422790527344,1.58311092853546,-9.97909336813917,-14.2305307388306,0.578904807567596
534,-10.6017948734021,-14.1529588699341,1.72665798664093,-16.1285807349099,-14.2562828063965,0.733100771903992
535,-17.5115899863279,-14.1584053039551,1.60661172866821,-19.0650031402396,-14.3206186294556,0.847219347953796
536,-15.9824325098565,-14.1669731140137,0.0945106744766235,-17.427017334224,-14.3241472244263,0.539162337779999
537,-11.988929862092,-14.1849317550659,1.56879878044128,-11.978603176326,-14.3198823928833,0.295285999774933
538,-16.6719293458266,-14.2028169631958,1.49297142028809,-8.02774654973418,-14.2993803024292,0.481223374605179
539,-16.7155801394774,-14.2580146789551,0.639530003070831,-7.20235366161674,-14.2344436645508,0.614971578121185
540,-13.008401859018,-14.223876953125,1.00121569633484,-14.8459817402582,-14.2199153900146,0.309831887483597
541,-17.3571133251896,-14.2282905578613,1.04445362091064,-21.9977859724184,-14.2466125488281,0.11395999789238
542,-16.6176531534249,-14.205771446228,1.07307147979736,-20.7933247538256,-14.2921009063721,0.0705526173114777
543,-17.6453538581711,-14.2115802764893,0.511813104152679,-10.3772700420819,-14.2214260101318,0.0559570603072643
544,-9.03171683600857,-14.1529035568237,1.59127902984619,-13.9862256426972,-14.1643571853638,0.201400235295296
545,-10.755095952465,-14.1179819107056,1.41581594944,-8.37116676097586,-14.1804065704346,0.385169208049774
546,-11.9840116151156,-14.0779180526733,1.85354328155518,-9.97909336813917,-14.1536750793457,0.480941385030746
547,-20.3289052781701,-14.1602506637573,1.56821727752686,-15.9884396702788,-14.1803512573242,0.575652658939362
548,-14.4445589760305,-14.1139764785767,1.09172260761261,-17.0953105563403,-14.1801300048828,0.661463856697083
549,-13.1016586739391,-14.1057844161987,1.59163546562195,-15.9933579172552,-14.1790914535522,0.574043810367584
550,-10.6348346274071,-14.0908231735229,1.67290937900543,-12.903529617943,-14.1860208511353,0.416687816381454
551,-10.8085507324803,-14.1054573059082,1.73857378959656,-16.5155714532245,-14.188624382019,0.276336401700974
552,-14.3974810539526,-14.121545791626,0.637725293636322,-14.7410971808781,-14.204005241394,0.242074385285378
553,-5.97196109358115,-14.0681686401367,1.57868528366089,-9.98179758753398,-14.1860437393188,0.330980479717255
554,-16.1761497873434,-14.0902509689331,-0.330016285181046,-8.4630187769939,-14.1463375091553,0.566195428371429
555,-16.6286520349023,-14.1109113693237,1.9577419757843,-15.0354984938082,-14.1636657714844,0.734965980052948
556,-15.9911438896736,-14.1242790222168,0.239015817642212,-18.5160851899825,-14.2205600738525,-0.525969624519348
557,-17.7706178881006,-14.1536312103271,1.01694822311401,-13.0852355436873,-14.1744918823242,0.594257295131683
558,-12.873079470874,-14.1328449249268,1.59519743919373,-15.9884396702788,-14.2174510955811,0.645908713340759
559,-19.9955719448368,-14.1461782455444,1.59778261184692,-15.9911438896736,-14.2174692153931,0.813811421394348
560,-14.3176417951583,-14.1551761627197,1.24861013889313,-16.8193647485693,-14.2363815307617,0.805152893066406
561,-11.2703977159653,-14.0970087051392,1.38864552974701,-18.0237926998639,-14.2534475326538,0.748840093612671
562,-16.5075373322965,-14.1200017929077,1.57346558570862,-12.9452175694474,-14.2548370361328,0.773240923881531
563,-13.988929862092,-14.1420230865479,1.67997324466705,-1.97515550478917,-14.1613836288452,0.809691965579987
564,-20.8839214593999,-14.1456136703491,1.4643771648407,-17.2797018062011,-14.1699905395508,0.904939830303192
565,-11.9780044546933,-14.1455926895142,1.71922969818115,-9.97909336813917,-14.1298961639404,0.963026702404022
566,-11.9862256426972,-14.1322412490845,1.68781328201294,-5.97357639953007,-14.0563135147095,1.05968987941742
567,-15.5279133544893,-14.1536111831665,1.10385572910309,-15.3151730111182,-14.0362367630005,1.03745436668396
568,-15.9933579172552,-14.1624021530151,-0.338811695575714,-7.97579042711168,-13.9795379638672,0.802559792995453
569,-12.5813073957208,-14.1469793319702,0.55474179983139,-15.1576542141258,-14.0338554382324,0.400848507881165
570,-13.8134912656008,-14.1554574966431,1.2758104801178,-12.1008114722371,-14.0031394958496,0.798627495765686
571,-13.0815725907253,-14.1555480957031,1.58754193782806,-16.6691926701614,-14.0160827636719,0.645995259284973
572,-10.2561635138498,-14.1356887817383,1.1864640712738,-16.7908262716856,-14.0290966033936,0.729520976543427
573,-13.988929862092,-14.0899477005005,1.35786962509155,-10.043459600044,-13.9760828018188,0.651906788349152
574,-13.4564525599975,-14.0538721084595,1.43383622169495,-14.5423249920358,-13.988582611084,0.661238849163055
575,-18.9093243038098,-14.0906476974487,1.68011784553528,-10.0468104507087,-13.9623584747314,0.795290410518646
576,-14.2735819645363,-14.0658330917358,1.84973001480103,-12.1132312697812,-13.930965423584,0.917177259922028
577,-14.5093025657741,-14.0661535263062,1.05226111412048,-13.0727412031357,-13.93092918396,1.01992833614349
578,-16.9585029401187,-14.0993356704712,1.13135099411011,-13.7099981113502,-13.8890266418457,1.11142408847809
579,-17.9955719448368,-14.0813007354736,0.993700504302979,-12.8443468106463,-13.8852376937866,1.13637173175812
580,-14.6518512104066,-14.0846138000488,0.386917769908905,-16.376080119717,-13.9373798370361,1.05995225906372
581,-7.96083079843194,-14.0317401885986,1.42461943626404,-11.988929862092,-13.8927230834961,1.03099727630615
582,-17.1548463029599,-14.052903175354,1.69969010353088,-16.876201360938,-13.8683614730835,1.09577441215515
583,-11.9862256426972,-14.0599365234375,0.0226894021034241,-17.9906536978604,-13.8930358886719,-0.316581785678864
584,-11.988929862092,-14.0174541473389,1.64374399185181,-7.97909336813917,-13.8530292510986,1.04597544670105
585,-16.4643379083867,-14.0032796859741,-0.358467906713486,-14.5914888005919,-13.8703804016113,-0.373857706785202
586,-16.8626535067568,-14.0220670700073,1.64552855491638,-14.6250308572646,-13.8708124160767,1.07272267341614
587,-17.0350717946311,-14.0407648086548,1.19681107997894,-10.4636628725081,-13.854287147522,0.956397950649261
588,-18.2432167403425,-14.0691633224487,0.211383640766144,-11.6160360432984,-13.891863822937,0.793759524822235
589,-11.124951212431,-14.0134086608887,1.59069418907166,-8.5194145881855,-13.815354347229,0.767528533935547
590,-12.9769783913918,-14.0066795349121,1.70119142532349,-18.8440567933216,-13.8477411270142,0.870242655277252
591,-17.9933579172552,-14.0515460968018,1.5337952375412,-14.3820903917312,-13.8296842575073,0.920873165130615
592,-15.9911438896736,-14.0305709838867,1.88291025161743,-16.6650569331519,-13.8416452407837,0.667608201503754
593,-7.22687934055757,-13.9551753997803,1.41025185585022,-5.96373990557725,-13.8039960861206,1.05748927593231
594,-18.907521007384,-13.9479217529297,0.947707295417786,-11.5653608858285,-13.8013114929199,1.12464666366577
595,-18.8018685555531,-13.9666604995728,1.36825931072235,-7.18995510464702,-13.7960319519043,1.15433716773987
596,-11.5934298976641,-13.9773893356323,0.958354413509369,-21.1590068478839,-13.8839302062988,1.14201784133911
597,-14.4830475091508,-13.9771423339844,0.867342472076416,-20.9602778271897,-13.8891735076904,2.08757305145264
598,-16.4792618543963,-13.9852409362793,0.493019104003906,-19.3192632097343,-13.9113636016846,1.12822353839874
599,-16.4657123975515,-13.9861965179443,1.54482543468475,-12.9612843423883,-13.9222545623779,1.10629403591156
600,-9.44562934055756,-13.921669960022,2.11987948417664,-13.3929658345104,-13.9172554016113,1.04265928268433
601,-15.7418710385626,-13.9405603408813,1.8224139213562,-13.1043628933339,-13.8943452835083,1.07391107082367
602,-15.9911438896736,-13.9505863189697,1.65778660774231,-12.2164389547158,-13.9069843292236,1.14320242404938
603,-11.9840116151156,-13.8971614837646,1.6688494682312,-13.9862256426972,-13.8750228881836,1.19370198249817
604,-16.9145888657501,-13.9499492645264,1.16520833969116,-15.9884396702788,-13.8615703582764,1.19703507423401
605,-13.9862256426972,-13.8965377807617,1.37438082695007,-19.9955719448368,-13.9149808883667,1.15265953540802
606,-11.7521062165854,-13.8949937820435,0.160226449370384,-12.6490570862722,-13.9060478210449,-0.688093364238739
607,-12.1874267014725,-13.8627605438232,0.854647159576416,-14.1112256426972,-13.8969402313232,1.02980303764343
608,-9.74069467106349,-13.8478422164917,0.907768726348877,-12.1890769788579,-13.8716115951538,0.9268878698349
609,-19.9955719448368,-13.8688669204712,0.905872702598572,-24,-13.8991146087646,0.828822672367096
610,-19.9977859724184,-13.9442739486694,1.21193432807922,-12.467428650216,-13.8716630935669,0.7519411444664
611,-7.29101546621202,-13.8862924575806,0.627597808837891,-13.580870253859,-13.8288984298706,-0.799766719341278
612,-11.9862256426972,-13.8904390335083,1.51241147518158,-5.97687934055757,-13.7721223831177,0.939272224903107
613,-10.8066795750357,-13.8383703231812,1.63390552997589,-16.0596192151018,-13.7677993774414,1.15293896198273
614,-17.098670771394,-13.901834487915,0.49037504196167,-16.3029718466628,-13.756911277771,1.0773651599884
615,-20.9955719448368,-13.9585838317871,0.96724009513855,-19.110921048448,-13.792649269104,0.663771092891693
616,-14.7703983045677,-13.9371156692505,1.34533441066742,-8.99769492436087,-13.7861280441284,0.424568951129913
617,-7.97357639953007,-13.8691730499268,1.88470160961151,-15.9884396702788,-13.8117380142212,0.456245481967926
618,-16.0506234435769,-13.8655643463135,1.70917463302612,-20.2037503834985,-13.860447883606,0.732156276702881
619,-11.9862256426972,-13.8255014419556,0.88236391544342,-3.95640274326874,-13.7656784057617,0.936896502971649
620,-3.94364798014735,-13.7970523834229,1.66905224323273,-5.97687934055757,-13.6855697631836,1.15381503105164
621,-10.71287548219,-13.8420114517212,1.73364949226379,-14.7908233438466,-13.7176303863525,1.30979549884796
622,-16.1455226386118,-13.8438806533813,1.5293333530426,-13.9862256426972,-13.6991958618164,1.27262210845947
623,-15.3461734754724,-13.8866930007935,0.071103572845459,-8.68044115991968,-13.6713676452637,0.614200472831726
624,-5.31535152352029,-13.886043548584,1.95377624034882,-14.0009780548631,-13.6694421768188,1.04170596599579
625,-14.6810613234484,-13.8837661743164,1.76929795742035,-19.8384283397904,-13.6946811676025,1.09603571891785
626,-10.660517193626,-13.8703870773315,1.67964196205139,-17.9955719448368,-13.7168865203857,1.02237594127655
627,-8.3124267014725,-13.8585824966431,2.09316611289978,-21.9977859724184,-13.8010396957397,0.778263568878174
628,-14.870618706281,-13.8751153945923,1.80595481395721,-15.988929862092,-13.7743291854858,0.651007831096649
629,-13.988929862092,-13.8566780090332,1.60537433624268,-10.8224288910479,-13.6998262405396,0.687061727046967
630,-12.1225827679463,-13.8620023727417,1.0461608171463,-13.4692761389129,-13.7215213775635,0.849135100841522
631,-18.3266912505885,-13.8831205368042,-0.322438418865204,-18.8672317911291,-13.7524557113647,0.901935935020447
632,-16.1729620714918,-13.9185657501221,-0.401608794927597,-18.6569942808916,-13.7929668426514,0.839793741703033
633,-13.8043999646301,-13.9306831359863,-0.0524503104388714,-16.391352291638,-13.8223686218262,0.796803951263428
634,-15.4039471616845,-13.9177360534668,0.207563564181328,-7.43257554308921,-13.8329772949219,0.796617031097412
635,-15.9911438896736,-13.9712533950806,0.202457666397095,-11.0003699638838,-13.8130712509155,0.810825526714325
636,-15.9884396702788,-13.980411529541,0.188062995672226,-22.870714149214,-13.8965034484863,0.876362085342407
637,-14.3974810539526,-13.9718656539917,0.208502724766731,-18.151416100681,-13.9200229644775,0.984748363494873
638,-19.9955719448368,-13.9812307357788,0.3863705098629,-15.9911438896736,-13.9336719512939,1.03677535057068
639,-12.5492290064199,-13.9522981643677,0.660617530345917,-15.3616006695454,-13.964879989624,1.11806964874268
640,-10.4711568602027,-13.9422121047974,0.874385893344879,-19.9977859724184,-14.0334224700928,1.07225477695465
641,-15.0768368397628,-13.9627981185913,0.58114230632782,-17.9933579172552,-14.0734844207764,0.917441010475159
642,-15.126412558585,-13.9830236434937,0.302234351634979,-11.4958162791228,-14.0241470336914,1.04050374031067
643,-17.9955719448368,-14.023118019104,0.325086325407028,-9.58046075293483,-13.9947757720947,1.01291728019714
644,-6.87428127104435,-13.9757061004639,0.602414727210999,-19.1069942808916,-14.0386152267456,1.07327032089233
645,-16.9405109782812,-13.989541053772,0.777928054332733,-16.0123452590273,-14.0654554367065,1.12755417823792
646,-13.9884396702788,-13.9961309432983,0.646939277648926,-16.0833097882911,-14.079421043396,-0.497845053672791
647,-17.9906536978604,-13.9827651977539,0.681645572185516,-7.53839080317204,-14.0498237609863,1.23376977443695
648,-14.3335310319187,-13.9551982879639,0.557171046733856,-20.2889851184895,-14.120945930481,-1.05647897720337
649,-17.992867725442,-14.0219593048096,0.404797583818436,-9.95078025470536,-14.1474742889404,1.18226599693298
650,-11.9862256426972,-13.9671030044556,0.343630373477936,-14.5862452983336,-14.1902408599854,1.15962016582489
651,-15.2728340305187,-13.9346122741699,0.437689989805222,-18.1717616731237,-14.2607002258301,1.16034197807312
652,-12.5210989854195,-13.8839530944824,0.618068337440491,-11.8585075993474,-14.2291536331177,1.1115255355835
653,-17.9933579172552,-13.9143867492676,0.519434750080109,-16.7314036299333,-14.215989112854,1.08142244815826
654,-18.8457261616285,-14.0269155502319,0.122020184993744,-18.9208941491393,-14.2889490127563,1.23778212070465
655,-12.5862256426972,-14.0175647735596,-0.00376895489171147,-14.8603584335206,-14.2486982345581,-0.575444519519806
656,-19.9955719448368,-14.0650405883789,0.159515634179115,-11.9840116151156,-14.2019691467285,1.12049877643585
657,-16.64666751838,-14.0811424255371,1.41514825820923,-19.0539448371009,-14.2362451553345,-0.844616889953613
658,-16.7755683831501,-14.0724267959595,1.39655208587646,-14.7755683831501,-14.2512273788452,1.08667957782745
659,-19.9955719448368,-14.094334602356,1.29110527038574,-14.0571116802738,-14.2515592575073,1.01755428314209
660,-16.9282416381854,-14.0909614562988,0.97942990064621,-15.9911438896736,-14.2515773773193,1.02839720249176
661,-19.9955719448368,-14.1710710525513,1.27861225605011,-13.0780400354236,-14.2588720321655,0.62152361869812
662,-14.4862256426972,-14.1964550018311,0.620565593242645,-13.988929862092,-14.2470846176147,0.399533331394196
663,-14.9984207646484,-14.1898555755615,0.393435597419739,-18.871406697743,-14.2783727645874,0.959462642669678
664,-13.2779779704327,-14.2011442184448,1.86820209026337,-15.9933579172552,-14.2646293640137,1.01390027999878
665,-17.9955719448368,-14.238865852356,1.80766129493713,-7.14966531297596,-14.2130041122437,0.976341605186462
666,-9.33682717333279,-14.2509860992432,1.25965178012848,-16.1627415228097,-14.2075538635254,1.03768360614777
667,-16.2049981288954,-14.247034072876,-0.246654123067856,-13.5131121442161,-14.1980209350586,-0.819265484809875
668,0.0485155037076763,-14.148458480835,1.97773814201355,-5.96595393315885,-14.1407775878906,1.23308336734772
669,-7.97357639953007,-14.1294412612915,1.94024121761322,-13.988929862092,-14.1105728149414,1.36165928840637
670,-7.97087218013526,-14.0881814956665,2.00543808937073,-1.96373990557725,-14.0170927047729,1.42590701580048
671,-13.8573509147236,-14.0873222351074,-0.184853300452232,-18.9933579172552,-14.0371065139771,1.35196328163147
672,-13.988929862092,-14.0825176239014,1.65102887153625,-15.3281004114127,-14.0361309051514,1.26838958263397
673,-18.009701316908,-14.1429738998413,-0.334938526153564,-10.4555421594673,-14.0098323822021,-0.729623436927795
674,-18.6863450121685,-14.1909151077271,-0.562591373920441,-14.986436096506,-14.0396451950073,1.23223471641541
675,-17.1994772230069,-14.2123355865479,0.210226714611053,-15.264003420475,-14.0882434844971,1.36736309528351
676,-15.2984396702788,-14.2614841461182,1.32960629463196,-9.06687934055756,-14.0020380020142,1.04338228702545
677,-7.95078025470536,-14.2479457855225,1.34115290641785,-12.2652616151156,-14.0172872543335,1.22230660915375
678,-12.0193646447007,-14.239465713501,1.89517176151276,-21.0825284665759,-14.0645799636841,1.23556363582611
679,-12.5669889338219,-14.2236299514771,-0.42407888174057,-13.7799647796581,-14.0765399932861,0.940798044204712
680,-13.0949212948711,-14.2344551086426,1.69679629802704,-14.6266110215123,-14.0868425369263,0.703127145767212
681,-12.5975565110217,-14.2118673324585,1.39503514766693,-15.9911438896736,-14.1225166320801,-0.0916637182235718
682,-16.4399701360893,-14.2353763580322,0.280065536499023,-4.48796898046712,-14.0431022644043,0.403569579124451
683,-20.9955719448368,-14.3221683502197,1.82405948638916,-14.9802184822749,-14.0764417648315,0.673324584960938
684,-7.97357639953007,-14.3046455383301,1.9971923828125,-11.9835214233024,-14.0488090515137,1.02111768722534
685,-15.9884396702788,-14.294490814209,1.95587837696075,-12.8774542380664,-14.0075569152832,1.14707827568054
686,-20.8543954742486,-14.3269691467285,1.94387793540955,-13.2458884705926,-13.9796829223633,0.965962946414948
687,-21.9977859724184,-14.3936948776245,0.418773114681244,-8.92245040652508,-13.9593086242676,0.894181847572327
688,-11.9862256426972,-14.3624572753906,0.290436685085297,-15.9933579172552,-14.012412071228,-1.58575904369354
689,-20.7699309191958,-14.3894872665405,-0.219272077083588,-20.7699309191958,-14.1028633117676,-0.492152690887451
690,-16.5468812287203,-14.4130773544312,1.95740222930908,-13.9835214233024,-14.0971145629883,0.837748229503632
691,-1.95148449629232,-14.3103723526001,2.09557414054871,-7.97087218013526,-14.0036001205444,0.897053480148315
692,-7.97087218013526,-14.2527275085449,1.97775542736053,-11.9840116151156,-13.9448728561401,1.27598035335541
693,-15.7237947034707,-14.2399168014526,2.00540256500244,-10.1255683127319,-13.9431934356689,1.45048761367798
694,-16.3452373879053,-14.2886734008789,1.79227089881897,-20.3278890180075,-13.9854717254639,1.01146984100342
695,-16.8954164144648,-14.3296089172363,0.660365462303162,-11.7979651034877,-14.0083169937134,1.02374136447906
696,-14.5810351252499,-14.3469219207764,2.39997267723083,-12.0218245989341,-14.0219354629517,1.16348695755005
697,-12.6913286882863,-14.2960062026978,2.0822958946228,-16.1640494263763,-14.0231056213379,1.23345959186554
698,-13.9911438896736,-14.2929821014404,1.51969146728516,-16.4621238808051,-14.0188846588135,1.24106645584106
699,-11.96796307299,-14.2854232788086,1.74579215049744,-15.9884396702788,-14.0188522338867,1.21662259101868
700,-13.7430183555188,-14.3061456680298,1.7828848361969,-13.0729634755374,-14.0199823379517,1.307945728302
701,-17.1711438896736,-14.3485631942749,2.47113132476807,-15.9933579172552,-14.0165004730225,1.34192478656769
702,-13.9862256426972,-14.3458223342896,2.12842202186584,-3.96373990557725,-13.9446516036987,1.40840303897858
703,-14.654518325624,-14.4037046432495,2.02497005462646,-9.42787385594404,-13.9409589767456,1.41725504398346
704,-10.9455931100065,-14.3688344955444,2.04468584060669,-12.1030044546933,-13.9652242660522,1.45409059524536
705,-17.5230308652473,-14.3747968673706,1.87407553195953,-18.980779300903,-13.9915266036987,1.16046106815338
706,-15.0947970712686,-14.368821144104,2.13850975036621,-16.4112968131359,-13.9774951934814,1.19984304904938
707,-16.0831684295509,-14.3575716018677,1.95030903816223,-14.3297839249058,-13.9857912063599,0.8836789727211
708,-14.6565553130269,-14.3694610595703,0.830402672290802,-13.988929862092,-13.9724607467651,-0.0667568445205688
709,-14.9179239449322,-14.3356103897095,1.84648942947388,-16.8728006944073,-13.9783401489258,0.97145664691925
710,-13.9911438896736,-14.3334341049194,1.74864852428436,-11.9862256426972,-13.9461183547974,0.896549463272095
711,-12.5270181911002,-14.3418111801147,1.87573087215424,-13.4564525599975,-13.9156684875488,1.12659561634064
712,-11.0987566518615,-14.3057518005371,2.01298642158508,-17.9906536978604,-13.9493045806885,1.10859668254852
713,-7.97087218013526,-14.2656335830688,1.95833611488342,-11.0668547481053,-14.0099172592163,1.11225724220276
714,-13.5005113569829,-14.2164096832275,1.25891017913818,-14.0524219255841,-13.9884014129639,1.15186941623688
715,-15.9933579172552,-14.2431783676147,1.8543221950531,-10.3725295575465,-13.9910249710083,1.10046792030334
716,-7.95812657903713,-14.2163248062134,1.8549896478653,-11.9862256426972,-14.0311098098755,1.07513880729675
717,-15.9911438896736,-14.2194128036499,1.46182060241699,-17.9906536978604,-14.0489473342896,0.424946427345276
718,-15.9884396702788,-14.2193794250488,1.68884110450745,-16.3527807555501,-14.104793548584,1.16873598098755
719,-15.9911438896736,-14.242112159729,2.13308095932007,-9.97909336813917,-14.0702686309814,1.09441530704498
720,-9.14571050938873,-14.210994720459,2.32689595222473,-15.9906536978604,-14.0962009429932,1.22068607807159
721,-11.481797587534,-14.2003288269043,2.07638072967529,-17.328222541359,-14.1005945205688,1.32993996143341
722,-16.558405540586,-14.2423439025879,-0.0524567514657974,-17.1215454723266,-14.1027994155884,-1.78685748577118
723,-14.0177079629617,-14.2425355911255,1.66238355636597,-3.98296681655685,-14.0623960494995,1.25515353679657
724,-9.97800445469328,-14.2193460464478,1.85397148132324,-7.98179758753398,-14.0186586380005,1.36073458194733
725,-19.9955719448368,-14.2265882492065,2.17908382415771,-5.96595393315885,-13.9914531707764,1.47011816501617
726,-13.1770486739732,-14.219277381897,1.9317467212677,-16.5824990762194,-14.0212488174438,1.47535884380341
727,-15.5523175967202,-14.2262306213379,0.804462730884552,-24,-14.0940971374512,0.832240581512451
728,-11.0458134804441,-14.1868133544922,-0.292216926813126,-12.0658297969338,-14.0831365585327,-0.711875319480896
729,-6.72077930261327,-14.111647605896,2.34188461303711,-16.0533200554767,-14.1045293807983,1.28508603572845
730,-10.5484286734703,-14.0842924118042,-0.206673264503479,-12.559354080869,-14.079083442688,0.0443155765533447
731,-9.86717923638909,-14.0970001220703,2.16679286956787,-18.5201068884486,-14.1226253509521,1.49011766910553
732,-11.9840116151156,-14.0625276565552,2.17095398902893,-15.9911438896736,-14.1167249679565,1.51097679138184
733,-7.50275520061641,-14.0326385498047,2.0950174331665,-18.3079646588282,-14.1188411712646,1.35857474803925
734,-16.6783960021565,-14.0639009475708,1.68575417995453,-13.6434002614038,-14.1566028594971,1.01802289485931
735,-13.9862256426972,-14.0473794937134,1.46807038784027,-7.97357639953007,-14.1124839782715,0.877583384513855
736,-12.7112843423883,-14.0197038650513,0.606242120265961,-11.9862256426972,-14.0948905944824,-0.0555123090744019
737,-9.97800445469328,-13.9726581573486,2.15361595153809,-13.988929862092,-14.1183938980103,1.38059413433075
738,-14.8705866668257,-13.9501724243164,0.521093368530273,-14.7791250509812,-14.1394805908203,0.810524642467499
739,-15.0451096373729,-13.9763069152832,0.22599983215332,-12.3821882890583,-14.1652326583862,1.41770756244659
740,-19.0570521847711,-14.0168409347534,1.83405208587646,-13.6973874112939,-14.1309213638306,1.21303594112396
741,-21.9977859724184,-14.0435371398926,1.51797795295715,-16.7745540279224,-14.1468715667725,0.965165972709656
742,-15.0513814500626,-14.0372724533081,2.25225496292114,-16.5442992970881,-14.1460676193237,1.04963719844818
743,-13.5513585538911,-14.0794353485107,2.10661482810974,-21.9977859724184,-14.2529602050781,1.35914146900177
744,-18.212750537873,-14.074803352356,1.42891800403595,-19.1595629034048,-14.3035888671875,0.49059596657753
745,-18.0625068534254,-14.0698747634888,0.843562543392181,-18.9157847107942,-14.381760597229,-0.0667997524142265
746,-5.96816796074045,-14.0323715209961,2.18662023544312,-5.96865815255366,-14.2804918289185,0.080754242837429
747,-13.6599375410415,-14.0268850326538,2.06624174118042,-14.4981891213513,-14.2374105453491,0.537974834442139
748,-15.9933579172552,-14.023645401001,1.82277822494507,-4.31352818511381,-14.1373710632324,0.774664998054504
749,-8.88483462740712,-13.9731073379517,0.48977917432785,-13.9862256426972,-14.1442041397095,0.678667783737183
750,-7.97087218013526,-13.9632749557495,2.06357622146606,-11.96796307299,-14.1347036361694,0.659780740737915
751,-16.9481331369854,-13.9713163375854,2.13399314880371,-17.9906536978604,-14.1672801971436,0.969319522380829
752,-15.9906536978604,-13.9713134765625,-0.220280766487122,-15.9824325098565,-14.1923856735229,0.754412114620209
753,-14.7681186468124,-13.9898748397827,2.05084300041199,-16.4150122024308,-14.2085790634155,0.596507430076599
754,-15.1494152800349,-13.9781074523926,1.86453795433044,-16.0811225971081,-14.2091960906982,0.569104194641113
755,-13.9911438896736,-13.9781398773193,0.513843178749084,-16.3911438896736,-14.1851663589478,0.440637081861496
756,-9.97909336813917,-13.9663181304932,1.63837158679962,-7.97087218013526,-14.1539793014526,0.44529715180397
757,-12.7415873726913,-13.9700126647949,1.98937153816223,-15.1231289962911,-14.1607255935669,0.70347398519516
758,-16.3198731714416,-14.0138740539551,1.01145970821381,-16.361916250432,-14.1885452270508,-0.500349402427673
759,-11.3436607379226,-13.9561948776245,1.69020748138428,-15.0788631879192,-14.1290702819824,0.7175133228302
760,-17.5203545638958,-13.939679145813,1.76189637184143,-15.9884396702788,-14.1525440216064,0.46844470500946
761,-14.1081029540011,-13.9851264953613,1.92489039897919,-16.0554713750537,-14.1690397262573,0.377353399991989
762,-19.0768581753879,-14.0323972702026,0.261933922767639,-14.7095647827269,-14.2272577285767,0.25560063123703
763,-22.3490054846135,-14.1093473434448,0.553442716598511,-13.0886646670874,-14.2074508666992,0.0864355266094208
764,-5.97466531297597,-14.0351867675781,1.91811442375183,-9.96574904540835,-14.1652030944824,0.0100858407095075
765,-18.9675055497122,-14.0216665267944,2.42842197418213,-17.9933579172552,-14.1577520370483,0.323414444923401
766,-7.98228777934719,-13.9764127731323,2.12455558776855,-7.98179758753398,-14.1509799957275,0.667125105857849
767,-18.850500774398,-14.0489253997803,1.94241154193878,-14.2362256426972,-14.1392984390259,0.897024631500244
768,-10.3888662603743,-14.0111799240112,0.0558308251202106,-13.5916065518244,-14.0952177047729,0.843832731246948
769,-15.2401234815103,-14.0328731536865,2.03247618675232,-15.9862256426972,-14.1754179000854,0.583128273487091
770,-6.50428044611779,-14.0499429702759,2.03613543510437,-13.0470746781786,-14.2225522994995,0.373420357704163
771,-11.8502186401656,-14.0575256347656,0.0981041193008423,-19.061361418521,-14.2510223388672,0.143865436315536
772,-19.9955719448368,-14.0831937789917,1.95445942878723,-13.9862256426972,-14.2510223388672,-0.00426609674468637
773,-15.9906536978604,-14.0874900817871,2.1370677947998,-19.9955719448368,-14.3264570236206,0.0259048864245415
774,-16.4385192075778,-14.1616439819336,0.298081517219543,-13.8195759762158,-14.3252477645874,0.209309041500092
775,-10.7652342382437,-14.135537147522,2.01431274414062,-13.906588673885,-14.285701751709,0.239213332533836
776,-17.1750519356506,-14.1789684295654,1.53557598590851,-20.0645374620782,-14.2994937896729,0.0923617109656334
777,-9.54122739556882,-14.187159538269,0.49120357632637,-14.6875599990783,-14.2507581710815,-0.0523114576935768
778,-9.05962957658497,-14.1484212875366,2.65273237228394,-19.9955719448368,-14.2774686813354,-0.00843736063688993
779,-13.9701771005716,-14.1482963562012,2.39948534965515,-11.9840116151156,-14.285213470459,0.204625159502029
780,-19.9977859724184,-14.2007970809937,2.15036416053772,-8.92873160358226,-14.2549428939819,0.473090797662735
781,-8.17759414479906,-14.1331367492676,2.19296193122864,-10.0467875234763,-14.1961393356323,0.77195543050766
782,-13.0721173419878,-14.1124639511108,1.92906045913696,-14.9708185249043,-14.1715660095215,0.801743686199188
783,-11.9840116151156,-14.1003284454346,2.37983727455139,-15.9906536978604,-14.1688947677612,0.586575448513031
784,-13.4780044546933,-14.0874881744385,2.34307980537415,-19.9977859724184,-14.2526626586914,0.394195407629013
785,-13.9835214233024,-14.0741052627563,0.241089224815369,-7.3484049879967,-14.2283172607422,0.32834330201149
786,-19.0868158611804,-14.0947589874268,1.94722247123718,-11.4958162791228,-14.1524839401245,0.339008748531342
787,-14.3059327679892,-14.0941486358643,2.10994672775269,-16.779715318245,-14.1433382034302,0.554520905017853
788,-12.9301389449759,-14.0470457077026,-0.413988590240479,-17.9933579172552,-14.1566858291626,0.570267796516418
789,-11.497275186321,-14.0400323867798,2.23804187774658,-15.9884396702788,-14.1608657836914,0.529617667198181
790,-3.96373990557725,-13.9966506958008,1.97870182991028,-13.9911438896736,-14.1208219528198,0.556149661540985
791,-16.8728006944073,-14.0086231231689,2.3596363067627,-10.6139347694216,-14.0716257095337,0.664824843406677
792,-5.93764081972504,-13.9473648071289,2.30208349227905,-15.9911438896736,-14.1015930175781,0.74297422170639
793,-6.87563489673971,-13.8732328414917,0.382744073867798,-9.76156985455387,-14.102801322937,0.839182496070862
794,-13.9862256426972,-13.9206457138062,2.12925791740417,-11.9867158345104,-14.0553321838379,0.909041106700897
795,-8.67909336813917,-13.8655700683594,2.08895325660706,-15.9911438896736,-14.0551919937134,0.961223959922791
796,-12.3204779450415,-13.8544502258301,2.26326370239258,-15.9933579172552,-14.0545930862427,0.947217345237732
797,-10.327903103168,-13.8033638000488,2.04831218719482,-7.24647559064632,-14.0526466369629,0.822551012039185
798,-14.0978761281341,-13.801794052124,2.25784111022949,-10.981797587534,-13.9905986785889,0.80418336391449
799,-7.97687934055756,-13.7350215911865,2.81077289581299,-7.96083079843194,-13.9773321151733,0.841787099838257
800,-15.1166604253059,-13.7558898925781,2.27559638023376,-13.9835214233024,-13.973313331604,0.978678226470947
801,-11.5079346146557,-13.7307910919189,0.0820607542991638,-13.9884396702788,-13.9454250335693,0.920852482318878
802,-5.5739213104484,-13.6844758987427,1.93825161457062,-11.3080407365602,-13.9417543411255,0.575437128543854
803,-14.8311362994923,-13.6633949279785,0.392149269580841,-14.812873729785,-13.9289646148682,0.43160754442215
804,-18.0917185729929,-13.6583671569824,1.8346152305603,-14.3878649869595,-13.8987455368042,0.497860640287399
805,-7.97958355995238,-13.6276569366455,2.09750247001648,4.0758832871142,-13.7725028991699,0.645256996154785
806,-19.6988831242943,-13.6256799697876,1.80706655979156,-17.9933579172552,-13.8125667572021,0.893788874149323
807,-13.9862256426972,-13.6079435348511,2.001305103302,-12.8657437149863,-13.7713117599487,0.96304726600647
808,-11.3609723951641,-13.5718469619751,2.29496479034424,-14.1418710385626,-13.7670869827271,0.725138485431671
809,-15.9911438896736,-13.5451507568359,0.706918239593506,-16.669715318245,-13.7845039367676,0.471745163202286
810,-10.7528819248834,-13.503981590271,2.31387782096863,-10.4730692717536,-13.7477169036865,0.0524414069950581
811,-12.1116638716621,-13.4514207839966,0.70865523815155,-12.0571116802738,-13.7409114837646,0.183812513947487
812,-11.9840116151156,-13.434739112854,2.05948448181152,-9.98450180692879,-13.7142152786255,0.522895872592926
813,-15.9911438896736,-13.4413585662842,2.34559965133667,-11.9867158345104,-13.6683168411255,0.881414592266083
814,-16.788245338949,-13.4647598266602,0.442567706108093,-15.9933579172552,-13.6683168411255,1.02705633640289
815,-16.3741226130779,-13.4539499282837,0.45499575138092,-15.9933579172552,-13.72727394104,0.915820837020874
816,-10.0119881049813,-13.4584512710571,2.5715594291687,-10.5678956902696,-13.6899757385254,0.809423804283142
817,-11.4440615210054,-13.4267110824585,0.419830083847046,-16.7873222336226,-13.7118034362793,0.674107313156128
818,-8.65556395637446,-13.4847383499146,2.39231324195862,-12.568045228561,-13.7558174133301,0.5062255859375
819,-7.97687934055757,-13.4847602844238,1.85265004634857,-9.98450180692879,-13.7291212081909,0.404073238372803
820,-10.992290168979,-13.5049028396606,0.417994499206543,-15.9906536978604,-13.8226337432861,0.524811863899231
821,-8.79994593660006,-13.4711875915527,2.17163157463074,-16.8845496270998,-13.8085746765137,0.530701220035553
822,-16.2538167007335,-13.4862861633301,0.706445038318634,-18.2560307283151,-13.8280944824219,0.287322908639908
823,-5.96595393315885,-13.4059944152832,2.25491952896118,-13.988929862092,-13.8516502380371,0.296195447444916
824,-15.9911438896736,-13.3880271911621,2.20363664627075,-12.781479969546,-13.836950302124,0.564269065856934
825,-16.4216848463051,-13.3828420639038,2.04317569732666,-5.53541297652736,-13.7720928192139,0.761438727378845
826,-20.6632535983177,-13.418607711792,1.56450700759888,-12.1049306786684,-13.7923469543457,0.792869567871094
827,-7.96083079843194,-13.4186744689941,1.72270572185516,-7.97909336813917,-13.7637729644775,0.868396580219269
828,-18.408104461034,-13.4612655639648,1.92723321914673,-14.8989779910561,-13.7225503921509,1.01992213726044
829,-8.12388858029207,-13.4316444396973,2.1643328666687,-22,-13.7773504257202,0.96086597442627
830,-16.814282366908,-13.4564399719238,2.35104322433472,-13.2109447438208,-13.7679119110107,0.63098669052124
831,-7.99357639953007,-13.4257478713989,2.0620903968811,-16.5417730036121,-13.7715816497803,0.48824468255043
832,-12.0001030464495,-13.3961486816406,2.36692905426025,-19.9977859724184,-13.8749809265137,0.544228315353394
833,-14.1461573469037,-13.3504867553711,1.92616295814514,-19.1347585013538,-13.9026794433594,0.464857310056686
834,-10.9753909254604,-13.3704986572266,0.25928121805191,-18.539504272573,-13.946385383606,0.310237050056458
835,-18.2790365117659,-13.3857688903809,0.940707087516785,-16.589569086524,-13.9711313247681,2.03747487068176
836,-12.4513772357584,-13.3297491073608,2.01637649536133,-16.4016419409238,-13.992169380188,0.255874484777451
837,-10.2569653727689,-13.2514772415161,2.3379545211792,-11.9652588535951,-14.0124559402466,0.30424639582634
838,-10.201087615501,-13.2395763397217,0.56769871711731,-10.6460564938511,-13.976806640625,0.38324099779129
839,-13.988929862092,-13.1943693161011,2.13780164718628,-14.1744609368148,-13.9328365325928,0.53788036108017
840,-1.96152587799564,-13.0971336364746,2.13638949394226,-11.9840116151156,-13.9195070266724,0.523852348327637
841,-14.4365984351281,-13.1803674697876,0.210818767547607,-15.9824325098565,-13.972918510437,0.513520121574402
842,-14.7849676790291,-13.2257947921753,1.85431396961212,-9.34354298758868,-13.9553136825562,0.649261295795441
843,-17.1301813228287,-13.2351713180542,1.90513873100281,-12.9753002352985,-13.9743118286133,0.641352117061615
844,-14.402183800194,-13.2222166061401,2.12101650238037,-13.9802184822749,-13.9319934844971,0.466460883617401
845,-13.988929862092,-13.2028398513794,1.70465755462646,-20.6900163892812,-13.9912748336792,0.459061533212662
846,-18.9240938479911,-13.2317934036255,1.85031938552856,-9.04741088501203,-13.9714450836182,0.538884222507477
847,-14.0482411465732,-13.2408399581909,1.97074627876282,-19.2464676513488,-13.9919958114624,0.504353880882263
848,-7.97087218013526,-13.200704574585,2.00740003585815,-3.97245128539436,-13.908730506897,0.60670804977417
849,-18.824526748424,-13.2464151382446,2.20995807647705,-9.96574904540835,-13.8685789108276,0.863324999809265
850,-5.97466531297596,-13.1946268081665,2.07773542404175,-9.98179758753398,-13.8479719161987,0.870936870574951
851,-19.0791948271264,-13.2073469161987,1.81955134868622,-22.5771851140493,-13.891863822937,0.773993909358978
852,-13.0673449484489,-13.2012214660645,1.92179441452026,-18.4752419752262,-13.9886064529419,0.564131557941437
853,-9.39783847227009,-13.1661767959595,1.34633004665375,-18.3416725239968,-14.0480318069458,0.258569210767746
854,-17.9955719448368,-13.2131767272949,0.46657133102417,-13.9911438896736,-14.0606203079224,0.196503818035126
855,-15.9911438896736,-13.2029628753662,1.68980979919434,-15.9824325098565,-14.0406312942505,0.257741004228592
856,-16.8687961462201,-13.2147912979126,0.377482533454895,-14.1248033066424,-14.0253887176514,0.322696596384048
857,-12.8692665783697,-13.1933641433716,1.67480254173279,-19.9955719448368,-14.0631608963013,0.389156639575958
858,-7.73036308269167,-13.1471900939941,0.737815618515015,-18.6275042587186,-14.0940837860107,0.299200415611267
859,-16.8706585307521,-13.1602087020874,1.86249208450317,-19.9955719448368,-14.1149024963379,0.185040727257729
860,-17.9933579172552,-13.1868896484375,1.67861294746399,-14.3822652466576,-14.1308755874634,0.101874284446239
861,-12.4154939353801,-13.186146736145,0.971387982368469,-9.99860556326112,-14.1078243255615,0.164951369166374
862,-9.97909336813917,-13.1786823272705,2.09241962432861,0.0694914548329705,-13.9874238967896,0.523713827133179
863,-9.28121700772147,-13.1874179840088,1.75855505466461,-15.9933579172552,-14.0202665328979,0.894656658172607
864,-15.7094960829488,-13.2021446228027,1.38625991344452,-7.58202398666291,-13.9771308898926,0.967100322246552
865,-7.97308620771686,-13.1486759185791,2.24788951873779,-3.95640274326873,-13.9343557357788,0.815572619438171
866,-17.992867725442,-13.2155733108521,1.52018296718597,-20.8364810357459,-13.9933576583862,0.884873569011688
867,-17.3685023802396,-13.2247562408447,2.04060673713684,-12.9399864578829,-13.9596862792969,0.846622586250305
868,-18.2364256033734,-13.2397432327271,1.82333064079285,-10.3724764516193,-13.9198179244995,0.678511559963226
869,-16.4585659859909,-13.2428588867188,1.80058515071869,-11.941924734629,-13.9329032897949,0.626332461833954
870,6.05786180584729,-13.1415023803711,1.99697780609131,-9.98401161511558,-13.892858505249,0.572703242301941
871,-6.58674056618893,-13.1088676452637,0.208160400390625,-14.2689481557862,-13.872462272644,0.559918105602264
872,-11.3081015420719,-13.0738668441772,1.41131854057312,-11.96796307299,-13.8381052017212,0.553313672542572
873,-11.9862256426972,-13.0603227615356,1.8620069026947,-9.97909336813917,-13.8780794143677,0.521661698818207
874,-11.952994282287,-13.0734891891479,1.8638676404953,-13.9884396702788,-13.9181251525879,0.682002067565918
875,-16.9918526395621,-13.0534648895264,-0.378094613552094,-16.5523983801636,-13.9887008666992,0.698951184749603
876,-16.3025348859792,-13.0743007659912,1.37323534488678,-13.9862256426972,-13.9713935852051,0.655705869197845
877,-20.3723835390397,-13.1064348220825,1.34561145305634,-17.6143322954707,-13.9288215637207,0.754070281982422
878,-10.8158721801353,-13.1049013137817,1.12838208675385,-15.4902184822749,-13.9516506195068,0.770536422729492
879,-14.8283309058551,-13.1589517593384,1.77618563175201,-8.39462903110902,-13.9005928039551,0.559297502040863
880,-18.5756363982679,-13.2124662399292,1.96872675418854,-13.985735450884,-13.9101028442383,0.482248932123184
881,-11.9780044546933,-13.2265386581421,1.98659336566925,-10.0668362077169,-13.8537483215332,0.606677114963531
882,-12.6299381563507,-13.230845451355,2.3473973274231,-7.75318064602463,-13.798828125,0.582764267921448
883,-5.96865815255366,-13.2206182479858,1.9151998758316,-11.988929862092,-13.7567005157471,0.599141240119934
884,-11.981797587534,-13.1893072128296,0.998970150947571,-16.8810960427836,-13.778284072876,0.748995125293732
885,-19.9977859724184,-13.2293844223022,2.05637884140015,-12.0840517296537,-13.8056888580322,0.651251196861267
886,-9.93941661834173,-13.2109060287476,1.351930975914,-11.089426790748,-13.7997102737427,0.498120039701462
887,-13.2556320353912,-13.2327566146851,1.87699806690216,-15.0824680905868,-13.8070001602173,0.594257295131683
888,-16.577970236979,-13.2441387176514,0.353290319442749,-9.95078025470536,-13.7748107910156,0.657075524330139
889,-10.6763193074233,-13.2150135040283,0.190491914749146,-11.9840116151156,-13.7721567153931,0.548125565052032
890,-12.77088474931,-13.1731052398682,1.88714849948883,-14.2343459434491,-13.7757358551025,0.543403387069702
891,-5.18396079714532,-13.061014175415,2.02865934371948,-15.9911438896736,-13.7705125808716,0.508444428443909
892,-5.97736953237077,-13.0005207061768,1.82114005088806,0.0567366917115831,-13.6598386764526,0.559920907020569
893,-9.90878618876651,-12.9762372970581,0.766418218612671,-11.330226713992,-13.5887222290039,0.878792226314545
894,-6.63564490740799,-12.8990564346313,1.8660523891449,-21.9977859724184,-13.6076431274414,0.937979817390442
895,-11.9840116151156,-12.8585329055786,1.82611429691315,-3.96644412497206,-13.507981300354,0.795864284038544
896,-13.3222905468663,-12.9075603485107,1.66338586807251,-18.1558093335608,-13.5892286300659,0.970226347446442
897,-16.9329721445212,-12.9293804168701,0.632958889007568,-15.5729272049048,-13.5963935852051,0.919633686542511
898,-15.8547702436361,-12.9284572601318,0.935380697250366,-13.9884396702788,-13.6608934402466,0.461904376745224
899,-4.70369852387392,-12.9005823135376,1.63228452205658,-14.258047513416,-13.6627054214478,0.298923492431641
900,-18.5517994756968,-12.9711217880249,2.21117877960205,-13.3785402517024,-13.6721096038818,0.354313522577286
901,-18.8421327913976,-12.9837484359741,0.288614988327026,-15.9933579172552,-13.6587944030762,0.382788002490997
902,-10.1376100242098,-12.944727897644,0.653084874153137,-22.5241017618921,-13.7024059295654,0.334341824054718
903,-12.2918051636064,-12.9282197952271,0.854012310504913,-14.9824325098565,-13.6928548812866,0.162840530276299
904,-8.38759468898325,-12.8831405639648,-0.734390616416931,-11.9753002352985,-13.6654815673828,0.136176407337189
905,-7.97958355995238,-12.8430633544922,1.97621190547943,-11.9802184822749,-13.6360759735107,0.477332293987274
906,-15.9933579172552,-12.8831586837769,1.66869819164276,-13.4441055118292,-13.6725654602051,0.833181917667389
907,-11.2891759343644,-12.8734760284424,1.67049789428711,-17.5404396643215,-13.6886796951294,0.830236494541168
908,-6.74057165806838,-12.8096132278442,1.70669257640839,-10.4592074622121,-13.6493291854858,0.730886220932007
909,-8.22120669890789,-12.78879737854,1.49477112293243,-18.8314874136581,-13.6743459701538,0.531756520271301
910,-16.5717730036121,-12.7824735641479,1.8034884929657,-14.5722631954253,-13.6649055480957,0.276504993438721
911,-5.96865815255366,-12.7282104492188,1.80837118625641,-9.98401161511558,-13.6244297027588,0.262860774993896
912,2.41959170164241,-12.5849008560181,0.8596031665802,-8.59740503273524,-13.5836820602417,0.521400451660156
913,-10.2219936659653,-12.5040531158447,1.85711395740509,-11.9835214233024,-13.5763139724731,0.846374094486237
914,-14.2297230632251,-12.5590867996216,2.07073068618774,-10.927631786885,-13.582727432251,0.911278605461121
915,-16.7404843540368,-12.5442409515381,1.41892421245575,-15.9933579172552,-13.5693941116333,0.757701396942139
916,-9.81069014621109,-12.5564308166504,0.00704109668731689,-10.8547430124506,-13.5885467529297,0.440851628780365
917,-14.4531115878414,-12.5271139144897,0.193875432014465,-9.54498921427353,-13.5572710037231,0.317808359861374
918,-17.9906536978604,-12.5777931213379,0.950766682624817,-7.57211743579566,-13.5171413421631,0.397334218025208
919,-10.5381484862494,-12.5464458465576,1.86782872676849,-4.7989224283081,-13.4425582885742,0.583294868469238
920,-2.95418871568713,-12.5227785110474,-0.0630520880222321,-10.7844291664813,-13.4274740219116,0.741454362869263
921,-9.48219848949373,-12.5069923400879,1.67986142635345,-14.3372894724844,-13.3959798812866,0.811971843242645
922,-16.2784396702788,-12.4822111129761,1.20240700244904,-12.2935214233024,-13.3846960067749,0.862011790275574
923,-5.2193681447564,-12.4104032516479,1.57565331459045,-12.5047534258867,-13.3347568511963,0.806743264198303
924,-11.4469138666037,-12.3771257400513,1.90340983867645,-11.9862256426972,-13.3225345611572,0.735498249530792
925,-6.02953268735111,-12.3455543518066,2.09615707397461,-8.31586275367435,-13.2852640151978,0.646442949771881
926,-5.31359341813739,-12.2664775848389,1.72845149040222,-13.65512713821,-13.2425346374512,0.5740727186203
927,-9.99199651721126,-12.2694835662842,2.01181793212891,-12.3599481724198,-13.2270174026489,0.574880182743073
928,-7.96574904540835,-12.2621908187866,1.61478197574615,-3.96595393315885,-13.120153427124,0.729607105255127
929,-11.9840116151156,-12.248948097229,1.94554364681244,-13.9802184822749,-13.1334609985352,1.02947306632996
930,-15.3298389530011,-12.2178297042847,0.25505268573761,-5.71637525287462,-13.1120452880859,1.06218731403351
931,-8.68772271405154,-12.221230506897,1.86829257011414,-18.7014970713544,-13.1697425842285,0.990247666835785
932,-14.561855894798,-12.231162071228,1.68093717098236,-13.5156374074031,-13.160041809082,0.812771916389465
933,-5.14152620710384,-12.1855449676514,1.65620255470276,-6.65172596632444,-13.0977811813354,0.546624839305878
934,-9.98179758753398,-12.1622371673584,1.61446166038513,-13.9862256426972,-13.0577049255371,0.534926772117615
935,-16.2091555790029,-12.1770753860474,0.122402429580688,-8.10192592252389,-13.0627288818359,0.582182347774506
936,-7.07913185111509,-12.0970239639282,0.20296323299408,-9.97530023529847,-13.0525922775269,0.523334741592407
937,-17.0901537906637,-12.1155853271484,1.91226291656494,-9.27658101484958,-13.002571105957,0.620454668998718
938,-12.1530064116174,-12.1104040145874,1.19202315807343,-9.26818368838365,-12.9444036483765,0.744458079338074
939,-3.94143395256575,-12.0600318908691,1.70494055747986,2.09220243224713,-12.8238658905029,0.794084131717682
940,-15.9933579172552,-12.1402282714844,1.94224190711975,-16.35478025331,-12.8396234512329,0.99537318944931
941,-19.9955719448368,-12.1610469818115,0.482481002807617,-13.9862256426972,-12.8621053695679,0.987411737442017
942,-8.56186204096504,-12.178542137146,1.14329516887665,-16.7859080247092,-12.8674030303955,0.731216013431549
943,-12.7613849519124,-12.2177801132202,-0.333439826965332,-8.09228623806651,-12.8562755584717,0.604317188262939
944,-12.3179341910963,-12.2066583633423,0.873633742332458,-19.9955719448368,-12.90966796875,0.59589695930481
945,-6.15426946721254,-12.189826965332,1.36547315120697,-8.82454791359371,-12.8618907928467,0.612098038196564
946,0.0790426447230841,-12.1071634292603,1.88944828510284,-7.97308620771686,-12.808422088623,0.623633503913879
947,-12.6455663020378,-12.1226148605347,-0.345351248979568,-14.4197789218353,-12.8562431335449,0.748586297035217
948,-12.7403749487972,-12.113564491272,2.43437051773071,-15.9911438896736,-12.8896389007568,0.858959674835205
949,-14.3977223707007,-12.1563692092896,-0.0769766867160797,-15.9824325098565,-12.9431171417236,0.699427127838135
950,-15.0998620063335,-12.1562585830688,1.39817070960999,-17.9906536978604,-12.9698305130005,0.568123817443848
951,-10.634938680637,-12.1504373550415,1.65450632572174,-10.4421121737748,-12.9461879730225,0.501193583011627
952,-10.6831453793145,-12.1844997406006,1.23446273803711,-10.6229748688945,-12.9416208267212,0.573220312595367
953,-11.7141968997463,-12.1637201309204,1.39401566982269,-11.9753002352985,-12.9227046966553,0.697919607162476
954,-0.600979323587734,-12.0471153259277,1.45898449420929,-13.1023548103819,-12.9141340255737,0.649238765239716
955,-17.0969639954937,-12.1078977584839,1.19026589393616,-15.9933579172552,-13.0479288101196,0.590652883052826
956,-14.2153449564316,-12.0713415145874,1.65468716621399,-17.9933579172552,-13.0479288101196,0.618729531764984
957,-11.0907490454084,-12.052038192749,2.11136960983276,-8.25433620771686,-13.017186164856,0.585055708885193
958,-11.9867158345104,-12.056209564209,1.65765523910522,-3.95773274515494,-12.9492921829224,0.712138831615448
959,-12.04087791404,-12.0298738479614,1.99599754810333,-14.3001279819671,-12.9334945678711,0.929739713668823
960,-15.1442970428267,-12.0591497421265,1.81004464626312,-15.9911438896736,-12.9702816009521,0.880777478218079
961,-9.98401161511558,-12.0449657440186,1.78561019897461,0.0433923689807681,-12.889612197876,0.855674147605896
962,-16.6069975482102,-12.0757856369019,1.13662827014923,-15.9933579172552,-12.9296712875366,1.0191045999527
963,-7.39045649078565,-12.0184469223022,1.77395188808441,-16.6719949535034,-12.9609069824219,1.11624383926392
964,-10.9264617891918,-11.9793691635132,1.86676180362701,-9.96304482601354,-12.9207048416138,0.9732506275177
965,-22.2148402359843,-12.0183076858521,1.77187418937683,-21.9977859724184,-12.9607343673706,0.685780107975006
966,-14.0820529805827,-12.0454406738281,0.680416345596313,-7.14620070120194,-12.9379234313965,0.330183416604996
967,-12.4500409732031,-12.0521478652954,1.12639105319977,-19.9955719448368,-12.9593114852905,0.190373584628105
968,-9.71083079843194,-12.0591821670532,1.53033125400543,-19.9977859724184,-13.0088424682617,0.203475773334503
969,-13.8169293208512,-12.0981159210205,1.22738337516785,-11.9538759742744,-13.0219707489014,0.145338922739029
970,-10.043419196963,-12.0917892456055,1.92374455928802,-11.9862256426972,-12.9952754974365,0.184528663754463
971,-17.9933579172552,-12.1530790328979,1.78581190109253,-6.74773347894903,-12.9276962280273,0.516416370868683
972,-19.9955719448368,-12.1780252456665,1.87238132953644,-12.5368750675714,-12.8895683288574,0.733677923679352
973,-11.6699651843932,-12.2160511016846,1.35405933856964,-10.5788849661748,-12.8668355941772,0.74492734670639
974,-10.9047486213956,-12.1821432113647,1.76340115070343,-4.83589530562113,-12.8138647079468,0.707908272743225
975,-11.0257254924915,-12.1461696624756,1.84997022151947,-15.9911438896736,-12.8835697174072,0.597955882549286
976,-7.97357639953007,-12.0615711212158,1.81359672546387,-9.98401161511558,-12.8694295883179,0.547357082366943
977,-8.92532992727895,-12.0680017471313,1.44141602516174,-15.9906536978604,-12.9228401184082,0.645709455013275
978,-7.63753884680193,-11.9961977005005,1.61632835865021,-10.3635274287133,-12.8926038742065,0.592618763446808
979,-6.03014535770519,-11.9822397232056,1.6161322593689,-8.69559128125886,-12.8039083480835,0.491488605737686
980,-9.98671583451039,-11.9367218017578,1.72190499305725,-12.0816127889213,-12.7963790893555,0.597567081451416
981,-7.97687934055756,-11.9366102218628,0.791099309921265,-15.256872445824,-12.7878131866455,0.588111042976379
982,-10.8981082395737,-11.9292631149292,-0.466227293014526,-8.18606205355298,-12.7090682983398,0.363619536161423
983,-15.9911438896736,-11.9415636062622,1.74124181270599,-3.95640274326873,-12.6078796386719,0.532412946224213
984,-13.9884396702788,-11.9616508483887,1.56926572322845,-11.4028502191129,-12.5603008270264,0.975109815597534
985,-1.94035420114311,-11.852725982666,1.59631097316742,-13.9862256426972,-12.5429458618164,1.08192086219788
986,-15.5351386861754,-11.8732843399048,1.25574612617493,-4.86622546650251,-12.46604347229,1.05353403091431
987,-16.7129840854795,-11.9163246154785,1.30870270729065,-13.9802184822749,-12.4794759750366,0.91629546880722
988,-16.3267492757688,-11.9571628570557,0.196871399879456,-6.16951905397612,-12.4496326446533,0.617118239402771
989,-7.97687934055756,-11.9170827865601,1.79016733169556,0.0545226641299806,-12.354772567749,0.671461284160614
990,-10.1613483706115,-11.9717483520508,0.134116590023041,-17.9933579172552,-12.3948354721069,0.987209141254425
991,-24,-12.0355033874512,1.24966716766357,-12.7866826710808,-12.3735303878784,1.17105305194855
992,-17.992867725442,-12.0568895339966,-0.345500707626343,-12.1143680910569,-12.3920021057129,0.993460536003113
993,-20.3573466888641,-12.078405380249,-0.497574895620346,-18.1559815011508,-12.4265394210815,-2.00621747970581
994,-12.2063073957208,-12.0637655258179,1.52297115325928,-10.881797587534,-12.4058837890625,0.695278525352478
995,-1.97245128539436,-11.9836559295654,1.7166782617569,-11.9867158345104,-12.3478631973267,0.715329349040985
996,-10.3677624998147,-11.9266128540039,1.88573598861694,-14.7257719673552,-12.3857173919678,0.871622741222382
997,-10.4389864162675,-11.902551651001,1.59417104721069,-15.7429405572792,-12.362361907959,0.927860140800476
998,-15.2534999112426,-11.9511022567749,1.5403755903244,-13.9835214233024,-12.4291019439697,0.792421042919159
999,-14.150609204341,-11.919942855835,-0.591486811637878,-14.6897740266599,-12.4605960845947,0.712489604949951
1000,-11.9780044546933,-11.9599657058716,1.801593542099,-11.988929862092,-12.4739761352539,0.833654344081879
1001,-11.9840116151156,-11.9126644134521,1.90594553947449,-11.9802184822749,-12.4033288955688,1.217982172966
1002,-15.0020877568288,-11.9255619049072,2.00556659698486,-19.2696737067289,-12.4086256027222,1.07524740695953
1003,-16.0729620714918,-11.9700632095337,0.824662208557129,-5.34408964467574,-12.3219747543335,1.02835750579834
1004,0.12103059614718,-11.8492851257324,1.96975576877594,-13.988929862092,-12.3219594955444,1.10920202732086
1005,-12.5283825011771,-11.8261995315552,1.84588658809662,-15.9911438896736,-12.3220186233521,1.11732518672943
1006,-10.7668687579727,-11.7855205535889,1.97211360931396,-11.9802184822749,-12.3077211380005,0.979510366916656
1007,-15.5073309471119,-11.8031072616577,1.67337322235107,-16.9191756010147,-12.2872123718262,0.854687452316284
1008,-17.285021440694,-11.8668050765991,1.38866829872131,-19.5647864886838,-12.2934598922729,0.753090858459473
1009,-3.96595393315885,-11.7807750701904,1.86591958999634,-9.97308620771686,-12.2266435623169,0.562423527240753
1010,-11.9802184822749,-11.740686416626,1.89208281040192,-3.97196109358115,-12.1572418212891,0.673324108123779
1011,-3.96644412497206,-11.6843595504761,1.65421152114868,-5.97687934055757,-12.1304302215576,1.10018157958984
1012,-15.9884396702788,-11.724422454834,1.93309497833252,-10.2974278540123,-12.1995429992676,1.32469713687897
1013,-3.59549306351322,-11.6865177154541,1.67834663391113,-14.0166203107678,-12.1863651275635,1.31096518039703
1014,-17.9933579172552,-11.7017431259155,0.289682626724243,-12.9634987946028,-12.2222414016724,1.10027134418488
1015,-14.7907911694995,-11.7471952438354,1.5289546251297,-15.9906536978604,-12.3024711608887,0.879110634326935
1016,-17.1060864184092,-11.7412824630737,2.07063055038452,-12.3376292348012,-12.2458114624023,0.826545476913452
1017,-11.0793854090447,-11.6993551254272,1.81596899032593,-8.37527818346418,-12.2153797149658,0.766711711883545
1018,-19.2362150601123,-11.7060203552246,-0.67584615945816,-16.9790722029695,-12.2594232559204,0.799891769886017
1019,-14.4449055672279,-11.6925964355469,-0.336162507534027,-18.187600930344,-12.301061630249,0.720621168613434
1020,-11.0348903902813,-11.8065481185913,1.8817822933197,-13.6659079701051,-12.3256072998047,0.570905447006226
1021,-10.8344859361748,-11.8348655700684,1.53726661205292,-12.8941232419178,-12.3164415359497,0.503318130970001
1022,-13.9884396702788,-11.8527345657349,1.82618629932404,-19.992867725442,-12.3699407577515,0.421781122684479
1023,-9.98401161511558,-11.8393859863281,1.71639740467072,0.0384741220043547,-12.3031568527222,0.458961874246597
1024,-18.4860408440845,-11.8829402923584,1.60079336166382,-16.8713664995471,-12.3223762512207,0.76231461763382
1025,-9.98179758753398,-11.8362064361572,1.8795028924942,-15.9884396702788,-12.3186168670654,0.855671286582947
1026,-16.8333503270739,-11.8397455215454,0.824734449386597,-7.63157950086827,-12.276252746582,0.809349775314331
1027,-2.53337434433279,-11.7208194732666,-0.659032583236694,-4.22071423068021,-12.1869611740112,0.95260363817215
1028,-13.4904537371842,-11.7386503219604,1.03863430023193,-5.36490921541499,-12.1194591522217,1.10736262798309
1029,-10.2704319508163,-11.7082633972168,1.56816434860229,-11.9840116151156,-12.1433887481689,0.991110742092133
1030,-6.84504192047771,-11.6300592422485,-0.384741455316544,-16.153934587348,-12.1578426361084,0.6521275639534
1031,-13.0414828794834,-11.6371488571167,1.33037376403809,-15.5264555277547,-12.1942405700684,0.536662518978119
1032,-13.9862256426972,-11.6461915969849,2.00572156906128,-5.96595393315885,-12.1823263168335,0.578764736652374
1033,-1.96373990557725,-11.6194925308228,1.89599800109863,0.0384741220043552,-12.1021432876587,0.868392288684845
1034,-3.95039558284643,-11.5659484863281,1.83263254165649,-11.9813073957208,-12.0694770812988,1.26325511932373
1035,-12.9205969809692,-11.5187683105469,1.79504537582397,-15.9933579172552,-12.0955390930176,1.36944127082825
1036,-5.97466531297597,-11.492335319519,1.59059143066406,-7.97958355995238,-12.0748081207275,1.2799426317215
1037,-16.3365409361016,-11.5128755569458,1.97267210483551,-8.93386889553638,-12.0338163375854,1.26950788497925
1038,-12.2102452462751,-11.4837560653687,1.9654666185379,-8.16511463467521,-12.0219125747681,1.28734028339386
1039,-18.5096783920326,-11.5359792709351,1.59317219257355,-19.992867725442,-12.0753040313721,0.986496686935425
1040,-13.9862256426972,-11.5440816879272,1.57819509506226,-12.5667158345104,-12.0641870498657,0.6569944024086
1041,-21.9977859724184,-11.6561737060547,1.78013503551483,-15.5346221505432,-12.0611429214478,0.553809583187103
1042,-13.101355897595,-11.7036666870117,-0.942527174949646,-10.8634543922677,-12.1339445114136,0.667951643466949
1043,-9.98179758753398,-11.7041540145874,1.7970814704895,4.05762071740698,-12.0313587188721,0.955898761749268
1044,-11.96796307299,-11.7397031784058,1.60384726524353,-7.97308620771686,-11.9378614425659,1.2298549413681
1045,-15.9884396702788,-11.7663993835449,0.79430079460144,-15.9933579172552,-12.0180416107178,1.32477116584778
1046,-20.3081140153207,-11.8129711151123,0.589227437973022,-14.003529617943,-11.9903593063354,1.23425507545471
1047,-10.6687123332446,-11.7712097167969,1.36045801639557,-10.8189846037155,-11.9586658477783,0.949988067150116
1048,-13.9884396702788,-11.7587671279907,1.92066252231598,-10.5919172697074,-11.9360227584839,0.696442306041718
1049,-16.3973616033643,-11.836724281311,1.76908385753632,-13.9802184822749,-11.9341707229614,0.685428738594055
1050,-21.9977859724184,-11.8596982955933,1.64489114284515,-13.9911438896736,-11.9382543563843,0.555651843547821
1051,-1.96974706599955,-11.7472152709961,1.86732912063599,-7.97909336813917,-11.8848266601562,0.504068970680237
1052,-10.6579246585938,-11.7506847381592,1.97576212882996,-17.9906536978604,-11.854603767395,0.714760363101959
1053,-17.9955719448368,-11.7887096405029,1.25060451030731,-12.4035238102375,-11.8374109268188,0.818614542484283
1054,-11.9813073957208,-11.8126678466797,1.63472270965576,4.04290217716756,-11.7306213378906,0.906366407871246
1055,-20.3480309612302,-11.8951234817505,1.58532822132111,-13.9911438896736,-11.7440280914307,1.19356870651245
1056,-15.9911438896736,-11.8951091766357,1.64209413528442,-17.9906536978604,-11.774338722229,1.248051404953
1057,-12.9096302469808,-11.9059114456177,1.43081641197205,-12.2048368074855,-11.7387676239014,1.03538632392883
1058,-11.9780044546933,-11.9408264160156,1.88714778423309,-7.96353501782675,-11.7221307754517,0.900251865386963
1059,-14.6447751745898,-11.9836511611938,1.85583364963531,-16.0023170740311,-11.7032690048218,0.905335307121277
1060,-8.70880319884431,-11.9312324523926,-0.486276268959045,-18.4933579172552,-11.7294101715088,0.763292849063873
1061,-15.9911438896736,-11.9980487823486,1.78101217746735,-9.98179758753398,-11.7293949127197,0.572703003883362
1062,-10.680974751723,-12.0853853225708,1.88947725296021,-15.0852355436873,-11.7726469039917,0.774395763874054
1063,-5.97466531297596,-12.0570707321167,2.00169038772583,-3.97736953237078,-11.7192735671997,0.997647941112518
1064,-5.87157077391288,-12.0013494491577,1.88760888576508,-15.6949635067749,-11.7510557174683,1.06544840335846
1065,-6.97357639953007,-11.9362363815308,1.17978453636169,-13.7149572593523,-11.7358665466309,0.914336323738098
1066,-11.2608673549758,-11.9459037780762,1.60373508930206,-11.2874183340884,-11.738751411438,0.628469824790955
1067,-11.9009091220408,-11.9288902282715,1.82683706283569,-17.6000061167012,-11.7924509048462,0.435509920120239
1068,-8.21816796074045,-11.8637399673462,1.7059713602066,-15.3634396702788,-11.8443927764893,0.40504664182663
1069,-14.081540068178,-11.8873624801636,1.86246943473816,-13.5373766274619,-11.9026489257812,0.496975094079971
1070,-2.19006992620077,-11.8822689056396,1.92629051208496,-10.8324964636004,-11.9029684066772,0.586539328098297
1071,-11.6191913552394,-11.8965148925781,1.85671675205231,-14.9235612584788,-11.9068784713745,0.600312352180481
1072,-12.2312256426972,-11.869532585144,1.70765292644501,-13.988929862092,-11.9181804656982,0.530484080314636
1073,-15.9640768780916,-11.9411640167236,1.50499331951141,-16.4787716625831,-11.9446744918823,0.486306220293045
1074,-17.9906536978604,-11.9847888946533,1.07858383655548,-13.9862256426972,-11.9580078125,0.362350463867188
1075,-17.059771340654,-12.0583248138428,1.34701633453369,-16.2602615409976,-12.0109701156616,0.498843818902969
1076,-5.70526936411649,-12.0609359741211,1.3985915184021,-14.9123748381685,-12.0193519592285,0.782631576061249
1077,-16.7607997777203,-12.1060609817505,2.03438329696655,-10.5997385987121,-12.0076169967651,0.843197762966156
1078,-14.6178996416952,-12.150408744812,-0.35351487994194,-10.3345419214669,-12.0500736236572,0.735077321529388
1079,-14.0378728616362,-12.1641006469727,1.96656584739685,-15.9884396702788,-12.0634622573853,0.633737146854401
1080,-1.92044681091998,-12.0747051239014,1.9216490983963,-14.0679377805205,-12.1191387176514,0.568791091442108
1081,-7.98450180692879,-12.0700168609619,1.76239669322968,-7.97687934055756,-12.0476417541504,0.708982288837433
1082,-7.59937296245252,-12.0236005783081,1.87464737892151,-14.3972138857606,-12.0535192489624,0.975800752639771
1083,-19.7460460892982,-12.1209630966187,1.72874987125397,-19.9955719448368,-12.1424779891968,1.08866250514984
