EpisodeIndex,DQNEpisodeReward,DQNAverageReward,DQNEpisodeQ0,DDQNEpisodeReward,DDQNAverageReward,DDQNEpisodeQ0
1,-19.16,-19.1599998474121,0.0306903682649136,-16.82,-16.8199996948242,0.0306903682649136
2,-14.9166666666667,-17.0383338928223,1.08804094791412,-20,-18.4099998474121,0.511364102363586
3,-16.2803738317757,-16.785680770874,1.0719211101532,-16.8411214953271,-17.8870410919189,0.0914966687560081
4,-20,-17.5892601013184,1.11388564109802,-10.0473372781065,-15.9271144866943,0.332131803035736
5,-20,-18.0714073181152,1.41852259635925,-10.2352941176471,-14.7887516021729,0.359926491975784
6,-16.4140127388535,-17.7951755523682,1.98537337779999,-21.5732484076433,-15.9195013046265,0.126384869217873
7,-22,-18.3958644866943,1.0129805803299,-14.0913242009132,-15.658332824707,0.873355269432068
8,-11.575,-17.5432567596436,1.0870875120163,-12.6,-15.2760410308838,0.341498583555222
9,-15.5983606557377,-17.3271560668945,1.00158202648163,-20.3524590163934,-15.840087890625,0.560369253158569
10,-15.640897755611,-17.1585311889648,1.03533041477203,-19.0299251870324,-16.1590709686279,0.381330728530884
11,-12.8311688311688,-16.7651348114014,1.4380784034729,-15.1688311688312,-16.0690479278564,0.248608693480492
12,-16.6647727272727,-16.7567729949951,1.16076803207397,-12.8920454545455,-15.8042984008789,0.357712954282761
13,-14.4347826086957,-16.5781574249268,0.947001039981842,-18.6141304347826,-16.0204391479492,0.273211240768433
14,-20,-16.8225746154785,1.0173898935318,-20.91,-16.3696937561035,0.191504672169685
15,-18.6616541353383,-16.9451808929443,1.44153308868408,-18.781954887218,-16.5305099487305,0.0250735580921173
16,-16.620253164557,-16.9248714447021,1.26204693317413,-13.3417721518987,-16.3312149047852,-0.704541921615601
17,-18,-16.9881134033203,0.926318407058716,-22,-16.6646728515625,0.164044216275215
18,-21.1059907834101,-17.2168846130371,1.42456746101379,-18,-16.7388572692871,-0.0397914573550224
19,-12.4708994708995,-16.9670963287354,1.97622001171112,-16.4708994708995,-16.7247562408447,-0.392747700214386
20,-20,-17.1187419891357,1.22808969020844,-16.6170212765957,-16.719367980957,0.0643570125102997
21,-22.4611111111111,-17.3731422424316,1.13347983360291,-16.2555555555556,-16.6972808837891,-0.406810581684113
22,-14.9099099099099,-17.2611770629883,1.06423342227936,-15.1801801801802,-16.6283226013184,-0.360333859920502
23,-15.5978260869565,-17.1888561248779,0.95436954498291,-22,-16.861873626709,-0.354193508625031
24,-15.8093023255814,-17.1313762664795,0.47072160243988,-24,-17.1592960357666,-0.43565770983696
25,-22,-17.3261203765869,0.812188327312469,-18,-17.1929244995117,-0.630416035652161
26,-13,-17.1597309112549,0.974031269550323,-16.8674698795181,-17.1804065704346,-0.658086180686951
27,-16,-17.1167774200439,1.01456415653229,-18,-17.2107620239258,-0.544841825962067
28,-18,-17.1483211517334,1.19770002365112,-20.8445378151261,-17.340539932251,-0.348716855049133
29,-14,-17.039758682251,0.917543351650238,-18.6987951807229,-17.3873748779297,-0.23769898712635
30,-15.1428571428571,-16.9765281677246,1.13139164447784,-14.0519480519481,-17.2761936187744,-0.235706150531769
31,-14,-16.8805103302002,5.72239112854004,-8.46153846153846,-16.991849899292,-0.229891374707222
32,-19.5,-16.9623699188232,0.3366419672966,-15.875,-16.9569492340088,-0.269628047943115
33,-18.5460750853242,-17.0103607177734,24.6733474731445,-20.8668941979522,-17.0754318237305,-0.390721291303635
34,-16,-16.9806442260742,-0.00817633792757988,-20,-17.161449432373,-0.478586196899414
35,-12.4854368932039,-16.8522109985352,0.63215035200119,-15.3058252427184,-17.1084308624268,-0.472323566675186
36,-20.2631578947368,-16.9469585418701,-0.0327673330903053,-22.9649122807018,-17.271110534668,-0.423252999782562
37,-18,-16.9754199981689,-0.0475904047489166,-12.2265193370166,-17.1347713470459,-0.467860341072083
38,-18,-17.0023822784424,0.123644538223743,-18,-17.1575393676758,-0.362969130277634
39,-12,-16.8741149902344,0.753341615200043,-16,-17.1278591156006,-0.161312147974968
40,-16.1446540880503,-16.8558788299561,1.12942504882812,-14.7044025157233,-17.0672721862793,0.0192655064165592
41,-18,-16.8837852478027,0.626637756824493,-16.6753246753247,-17.0577144622803,0.156391397118568
42,-19,-16.9341716766357,1.15333092212677,-15.5394736842105,-17.0215663909912,0.0619448870420456
43,-16.7463414634146,-16.9298038482666,1.50655043125153,-17.4829268292683,-17.0322952270508,0.120143994688988
44,-18,-16.9541263580322,1.15364253520966,-18,-17.0542888641357,0.298273146152496
45,-19.1079812206573,-17.0019874572754,0.876513183116913,-16.7183098591549,-17.0468215942383,0.237670451402664
46,-12.3481012658228,-16.9008178710938,1.22060489654541,-20,-17.1110210418701,0.115088790655136
47,-12.3314285714286,-16.803596496582,1.23229205608368,-10.9828571428571,-16.9806327819824,-0.0316796414554119
48,-22,-16.9118556976318,1.31974577903748,-20,-17.0435371398926,-0.0496509671211243
49,-18.4636363636364,-16.9435234069824,2.97812533378601,-16.3636363636364,-17.0296611785889,0.0507501065731049
50,-18.1181818181818,-16.9670162200928,0.655225574970245,-16.6090909090909,-17.0212516784668,0.0600660219788551
51,-18.6582278481013,-17.0001773834229,8.56749820709229,-8,-16.8443641662598,-0.0744594112038612
52,-18,-17.0194053649902,1.13529932498932,-16,-16.8281269073486,0.0185227021574974
53,-10.1052631578947,-16.8889503479004,22.4063186645508,-18.7631578947368,-16.8646354675293,-0.183750778436661
54,-15.2536585365854,-16.8586673736572,1.13707363605499,-20,-16.9226970672607,-0.703126192092896
55,-17.7277227722772,-16.8744678497314,0.85140985250473,-22.9059405940594,-17.0314846038818,-0.895995914936066
56,-15.3370786516854,-16.8470134735107,0.822303831577301,-20.0898876404494,-17.0860996246338,-0.791638255119324
57,-10.301775147929,-16.7321853637695,1.40833163261414,-18,-17.1021327972412,-0.756103873252869
58,-12.6136363636364,-16.6611766815186,1.67563366889954,-15.3068181818182,-17.0711784362793,-0.718429923057556
59,-22,-16.7516651153564,0.153321951627731,-16.8725490196078,-17.0678119659424,-0.589655160903931
60,-18.8823529411765,-16.7871761322021,0.260049015283585,-9.76470588235294,-16.9460945129395,-0.450203627347946
61,-18,-16.8070583343506,22.2283916473389,-20,-16.9961585998535,-0.332090049982071
62,-17.1834319526627,-16.8131294250488,2.20952272415161,-24,-17.1091232299805,-0.275938659906387
63,-21.1007194244604,-16.8811855316162,0.659204483032227,-18.5251798561151,-17.1315994262695,-0.409234344959259
64,-20.5092592592593,-16.937873840332,0.619797766208649,-11.0925925925926,-17.037239074707,-0.569997549057007
65,-20.4943820224719,-16.9925899505615,1.29305744171143,-16.2696629213483,-17.0254325866699,-0.610149800777435
66,-16,-16.9775505065918,0.470572948455811,-14.8599033816425,-16.9926204681396,-0.627415299415588
67,-16,-16.9629592895508,1.8964638710022,-18.0190476190476,-17.0079402923584,-0.576890349388123
68,-18.3628048780488,-16.9835453033447,0.620918691158295,-14.8506097560976,-16.9762134552002,-0.466725677251816
69,-19.3259052924791,-17.0174922943115,0.802966833114624,-18.0473537604457,-16.9917373657227,-0.487232029438019
70,-20,-17.0601005554199,0.83522766828537,-16.0480349344978,-16.9782581329346,-0.670219719409943
71,-20.9021739130435,-17.1142139434814,0.762080550193787,-14.2391304347826,-16.9396781921387,-0.72248387336731
72,-22,-17.182071685791,0.684874594211578,-15.9851632047478,-16.9264221191406,-0.64788556098938
73,-18,-17.1932754516602,0.0636113882064819,-15.1290322580645,-16.9018001556396,-0.560805678367615
74,-22,-17.2582321166992,0.167836248874664,-14.6802973977695,-16.8717803955078,-0.486411422491074
75,-20.5055248618785,-17.3015289306641,0.574895620346069,-16,-16.8601570129395,-0.570694386959076
76,-17.3529411764706,-17.3022041320801,0.509881138801575,-14.4352941176471,-16.8282508850098,-0.842597544193268
77,-12.6825396825397,-17.2422103881836,1.04574608802795,-22,-16.8954162597656,-0.891183853149414
78,-16,-17.2262840270996,0.927926063537598,-16,-16.8839359283447,-0.700906693935394
79,-21.1612903225806,-17.2760944366455,0.91273832321167,-20,-16.9233798980713,-0.491212248802185
80,-10.1329479768786,-17.186803817749,0.529398858547211,-16.0578034682081,-16.9125595092773,-0.305958449840546
81,-13.3448275862069,-17.1393737792969,0.500337243080139,-16.6551724137931,-16.9093818664551,-0.218034088611603
82,-15.5913043478261,-17.1204948425293,0.875889599323273,-20.7086956521739,-16.9557151794434,-0.235443830490112
83,-10.9134199134199,-17.0457096099854,0.726167500019073,-20.9134199134199,-17.003396987915,-0.334327697753906
84,-20,-17.0808811187744,0.749720573425293,-18,-17.0152626037598,-0.419951915740967
85,-11.013698630137,-17.00950050354,6.39534759521484,-20,-17.0503768920898,-0.36795637011528
86,-20,-17.0442752838135,0.74081015586853,-10,-16.9683952331543,-0.12951572239399
87,-18,-17.0552597045898,0.967044055461884,-14,-16.9342765808105,0.0856882259249687
88,-17.5909090909091,-17.0613479614258,0.850397825241089,-20.2954545454545,-16.9724712371826,0.231363892555237
89,-14,-17.0269508361816,1.10631561279297,-14,-16.9390716552734,2.73430776596069
90,-6,-16.9044284820557,1.0635290145874,-18,-16.9508590698242,0.42916876077652
91,-6,-16.7845993041992,1.06435692310333,-12,-16.8964557647705,0.465847581624985
92,-10.7637130801688,-16.7191562652588,7.76099252700806,-15.1012658227848,-16.8769416809082,8.23781490325928
93,-12.3427230046948,-16.6720962524414,0.88744592666626,-18,-16.8890190124512,0.520249366760254
94,-12.6269430051813,-16.6290626525879,0.928881287574768,-14.0621761658031,-16.8589458465576,0.482676118612289
95,-20.1383647798742,-16.6660022735596,0.846089839935303,-17.2830188679245,-16.8634090423584,0.407804250717163
96,-16.8061674008811,-16.6674633026123,0.879079163074493,-15.2643171806167,-16.846752166748,0.153760462999344
97,-14.3004115226337,-16.6430606842041,0.870989203453064,-9.80246913580247,-16.7741317749023,-0.195904046297073
98,-14,-16.6160907745361,0.866969048976898,-18,-16.7866401672363,-0.223510578274727
99,-17.6232294617564,-16.6262626647949,1.06552696228027,-18.2492917847025,-16.8014144897461,-0.119763195514679
100,-14.8863636363636,-16.6088638305664,3.91200304031372,-22.5909090909091,-16.8593082427979,-0.670820713043213
101,-22.3720930232558,-16.6659259796143,0.859983623027802,-20.7054263565891,-16.8973903656006,-1.15408957004547
102,-18,-16.6790046691895,3.23175430297852,-18.2934131736527,-16.911075592041,-0.876793801784515
103,-12.8684210526316,-16.6420097351074,0.660866916179657,-14.0460526315789,-16.8832607269287,-0.432027786970139
104,-12,-16.5973739624023,0.830033779144287,-10,-16.8170757293701,-0.410479992628098
105,-18,-16.6107330322266,0.941158711910248,-13.1914893617021,-16.7825450897217,-0.208144664764404
106,-16.7074468085106,-16.6116466522217,0.941058218479156,-19.0106382978723,-16.8035659790039,-0.152924388647079
107,-18,-16.6246204376221,0.942123353481293,-14.3167701863354,-16.7803230285645,-0.198602214455605
108,-15.8421052631579,-16.617374420166,0.844907402992249,-10.4210526315789,-16.7214412689209,-0.195740029215813
109,-19.4109195402299,-16.6430034637451,0.659828245639801,-16.8534482758621,-16.7226524353027,-0.154875367879868
110,-16.34375,-16.6402835845947,0.575852930545807,-16.71875,-16.7226181030273,-0.303869992494583
111,-16,-16.6345157623291,0.633864164352417,-10,-16.6620540618896,-0.420839250087738
112,-11.1290322580645,-16.5853595733643,2.25387382507324,-18,-16.673999786377,-0.260118514299393
113,-15.9216589861751,-16.5794849395752,0.919155180454254,-17.8755760368664,-16.6846332550049,-0.126744091510773
114,-24,-16.6445770263672,1.04302787780762,-15.7826086956522,-16.6767196655273,-0.169362768530846
115,-18.1086956521739,-16.6573085784912,0.943840563297272,-18.3369565217391,-16.6911582946777,-0.281555503606796
116,-18,-16.6688842773438,0.827041566371918,-15.7247191011236,-16.6828269958496,-0.419511407613754
117,-13.1228070175439,-16.6385765075684,0.817879557609558,-16.327485380117,-16.6797904968262,-0.562630772590637
118,-20,-16.6670627593994,0.895203590393066,-12,-16.6401309967041,-0.556467652320862
119,-14,-16.6446495056152,0.985539019107819,-22,-16.6851711273193,-0.379649996757507
120,-6.59090909090909,-16.5608692169189,1.04028534889221,-16.8181818181818,-16.6862812042236,-0.212220504879951
121,-14.5828220858896,-16.5445213317871,1.13920283317566,-16.5828220858896,-16.6854248046875,-0.172694697976112
122,-20.415512465374,-16.5762500762939,1.17427039146423,-18.7479224376731,-16.7023296356201,-0.308964937925339
123,-18,-16.5878257751465,1.06722116470337,-16,-16.6966209411621,-0.518168687820435
124,-25,-16.6556663513184,1.03088140487671,-11.615873015873,-16.655647277832,-0.403562515974045
125,-18.6781115879828,-16.6718482971191,0.943362772464752,-16.9141630901288,-16.65771484375,-0.23625485599041
126,-22.6712962962963,-16.71946144104,0.807925403118134,-14.287037037037,-16.6389007568359,-0.227709800004959
127,-18,-16.7295436859131,0.538423240184784,-16,-16.6338691711426,-0.165556088089943
128,-18,-16.7394695281982,0.507900476455688,-14.4859813084112,-16.6170902252197,-0.0842952877283096
129,-16,-16.7337379455566,0.691617548465729,-12,-16.581298828125,0.0723518803715706
130,-15.1724137931034,-16.7217292785645,0.874263346195221,-20,-16.6075973510742,0.16278812289238
131,-14.906976744186,-16.7078742980957,0.951102554798126,-16.3720930232558,-16.6057987213135,0.100444138050079
132,-14.6062992125984,-16.6919536590576,0.936782538890839,-14.8425196850394,-16.5924396514893,-0.0187157019972801
133,-13.890243902439,-16.6708869934082,0.902084052562714,-11.2560975609756,-16.5523166656494,-0.123595915734768
134,-10,-16.6211051940918,0.915009677410126,-20,-16.5780448913574,-0.0784264355897903
135,-18,-16.6313190460205,0.986834228038788,-18,-16.5885772705078,0.0848560109734535
136,-19.2979591836735,-16.6509246826172,1.00332975387573,-16.865306122449,-16.5906143188477,0.110245659947395
137,-20.3492822966507,-16.6779232025146,0.737103641033173,-19.6507177033493,-16.6129493713379,0.0156553685665131
138,-14,-16.6585178375244,0.864851891994476,-20.7384615384615,-16.6428451538086,-0.21741846203804
139,-14.3355704697987,-16.6418056488037,0.373857408761978,-12,-16.6094436645508,-0.381254434585571
140,-14.7184466019417,-16.6280670166016,0.597323715686798,-20,-16.6336612701416,-0.277915835380554
141,-13.9888268156425,-16.6093482971191,0.705387473106384,-16,-16.6291675567627,-0.13678827881813
142,-15.5707317073171,-16.6020355224609,0.795680642127991,-20.6048780487805,-16.6571655273438,-0.0613237731158733
143,-16,-16.5978260040283,1.0052238702774,-10,-16.6106109619141,0.00617650523781776
144,-20,-16.621452331543,1.08370411396027,-16,-16.6063709259033,0.151611298322678
145,-16,-16.617166519165,0.846125960350037,-14.5940594059406,-16.592493057251,0.365612387657166
146,-16,-16.6129379272461,1.16761028766632,-14,-16.5747356414795,0.525127649307251
147,-14.75,-16.6002655029297,1.06228494644165,-14.3859649122807,-16.5598468780518,0.603655993938446
148,-16,-16.5962104797363,0.8428955078125,-16,-16.5560626983643,0.516758859157562
149,-16.8952879581152,-16.598217010498,6.23128080368042,-20,-16.5791778564453,0.253863364458084
150,-19.7807486631016,-16.6194343566895,0.906954288482666,-16.0802139037433,-16.5758514404297,0.0298130735754967
151,-14.4512820512821,-16.588041305542,2.26179194450378,-15.1025641025641,-16.5644016265869,-0.108023919165134
152,-12,-16.5685977935791,0.880669474601746,-16,-16.5377349853516,-0.0801751390099525
153,-14,-16.553394317627,1.00774729251862,-14,-16.5187931060791,0.0753977969288826
154,-17.7532467532468,-16.5384159088135,1.05035817623138,-20,-16.5851440429688,0.254425048828125
155,-20.1931818181818,-16.5397033691406,1.1196311712265,-16.875,-16.6294097900391,0.326310247182846
156,-19.0686274509804,-16.5574016571045,1.12696290016174,-17.4901960784314,-16.6021881103516,0.328518122434616
157,-11.9285714285714,-16.4902591705322,1.10817456245422,-12.6785714285714,-16.5927696228027,0.31291201710701
158,-19.1574803149606,-16.5408096313477,1.05203521251678,-12.6062992125984,-16.5928115844727,0.336673498153687
159,-14.815668202765,-16.5355911254883,-0.0783430337905884,-14.7373271889401,-16.5553779602051,0.376850426197052
160,-16.5265700483092,-16.5414962768555,0.883040368556976,-19.2367149758454,-16.5567569732666,0.316259890794754
161,-16.0046511627907,-16.562650680542,0.983968079090118,-20,-16.5889644622803,0.136219531297684
162,-12,-16.5315532684326,0.970927238464355,-18,-16.6230182647705,0.0107623832300305
163,-13.0926829268293,-16.5226058959961,0.964404106140137,-18.9024390243902,-16.6249389648438,0.0267088767141104
164,-18,-16.5092716217041,0.939550578594208,-16.6627218934911,-16.5966243743896,0.0201832391321659
165,-10.5049504950495,-16.4548950195312,0.847798824310303,-17.5841584158416,-16.5886402130127,-0.0720444992184639
166,-22,-16.490758895874,3.61806774139404,-12.4472573839662,-16.5826759338379,-0.233106017112732
167,-18,-16.490758895874,0.937310516834259,-16,-16.5426750183105,-0.264299958944321
168,-17.4545454545455,-16.4664154052734,0.944494724273682,-14.7818181818182,-16.5212211608887,-0.136452838778496
169,-20,-16.5166091918945,0.880854189395905,-14,-16.5047473907471,-0.0263174660503864
170,-16,-16.4899425506592,0.607711613178253,-13.7612903225806,-16.485710144043,0.0975393056869507
171,-18.9126637554585,-16.466287612915,0.792779326438904,-10.9606986899563,-16.4504108428955,0.171367675065994
172,-16.4585635359116,-16.4766120910645,0.74777764081955,-20.9171270718232,-16.4886569976807,-0.00724974879994988
173,-16.6913580246914,-16.4839019775391,0.780782759189606,-15.4444444444444,-16.444953918457,-0.172834947705269
174,-18.225,-16.5000057220459,0.754779100418091,-13.525,-16.3751201629639,-0.246683195233345
175,-18.561797752809,-16.4770851135254,0.762948632240295,-16.3483146067416,-16.3641090393066,-0.192167803645134
176,-19.0404624277457,-16.51735496521,0.77791827917099,-18.6531791907514,-16.3760147094727,-0.206333190202713
177,-12.3291139240506,-16.4928817749023,0.719702303409576,-20.8354430379747,-16.3949165344238,-0.244433328509331
178,-15.2631578947368,-16.4746379852295,0.729589223861694,-18.5263157894737,-16.3794631958008,-0.283772349357605
179,-16,-16.4879703521729,0.903172433376312,-16,-16.3614711761475,-0.31755456328392
180,-16.5436241610738,-16.4973087310791,1.07475697994232,-11.6778523489933,-16.3456439971924,-0.173141986131668
181,-10.3684210526316,-16.4730968475342,3.86117625236511,-15.8289473684211,-16.3947582244873,-0.00746183097362518
182,-15.3457249070632,-16.4454040527344,1.1354147195816,-17.1338289962825,-16.4031505584717,-0.0113392760977149
183,-14.7272727272727,-16.4199447631836,0.906989753246307,-17.6181818181818,-16.3814945220947,-0.0978377386927605
184,-11.7896341463415,-16.3918743133545,0.739745318889618,-11.9420731707317,-16.3277740478516,-0.101889409124851
185,-18.2523364485981,-16.4303226470947,0.769833028316498,-12.0934579439252,-16.3063583374023,-0.144757211208344
186,-9.1235632183908,-16.3560581207275,0.910802125930786,-16.7385057471264,-16.2648487091064,-0.16682106256485
187,-14.0120481927711,-16.3294715881348,1.08511221408844,-11.1204819277108,-16.257474899292,-0.121392756700516
188,-16.4943820224719,-16.3194332122803,1.05526423454285,-13.3370786516854,-16.226390838623,-0.0874700918793678
189,-18.0887372013652,-16.3600234985352,2.85005736351013,-16.4334470989761,-16.2292785644531,-0.0662799775600433
190,-16,-16.3590602874756,1.14877891540527,-18,-16.2512493133545,-0.064978115260601
191,-20.6158536585366,-16.376501083374,1.11823332309723,-18.9939024390244,-16.2667064666748,-0.0448353067040443
192,-12.2916666666667,-16.3317794799805,0.939486265182495,-12.4791666666667,-16.2463054656982,-0.0209951065480709
193,-12,-16.3001365661621,0.79671847820282,-14,-16.2230834960938,0.125575825572014
194,-18,-16.3001365661621,0.914477288722992,-14,-16.1964168548584,0.393996983766556
195,-11.7041420118343,-16.2507762908936,1.10336911678314,-18.8047337278106,-16.2103271484375,0.613064765930176
196,-18,-16.2884578704834,1.06414747238159,-11.3409090909091,-16.1525993347168,0.608799934387207
197,-16.7320574162679,-16.3177947998047,1.00173890590668,-16.3492822966507,-16.1883754730225,0.370295643806458
198,-20.5227272727273,-16.3079452514648,0.939903199672699,-14.4318181818182,-16.1512546539307,0.08519646525383
199,-16,-16.2915210723877,0.893737196922302,-22,-16.1888313293457,-0.061654306948185
200,-5.06329113924051,-16.2044887542725,1.1674976348877,-10.4683544303797,-16.147891998291,-0.0801083147525787
201,-17.4651162790698,-16.1965351104736,1.19279992580414,-18.5348837209302,-16.2181243896484,-0.0105849243700504
202,-18.7295597484277,-16.2013988494873,1.20241379737854,-11.5471698113208,-16.188440322876,0.088012658059597
203,-17.3762376237624,-16.2498722076416,1.14335298538208,-18.9059405940594,-16.1893920898438,0.110728397965431
204,-18.6466666666667,-16.2724914550781,1.07550644874573,-14.8466666666667,-16.1550350189209,0.0026190928183496
205,-20.3145400593472,-16.289737701416,0.945328533649445,-19.3234421364985,-16.1311531066895,-0.128501296043396
206,-12.0789473684211,-16.2680168151855,0.789622485637665,-18,-16.1172199249268,-0.181234881281853
207,-20.3608695652174,-16.3350772857666,0.806945502758026,-17.2608695652174,-16.1122932434082,-0.22773964703083
208,-16.4859813084112,-16.3608913421631,0.762511074542999,-20.981308411215,-16.1501216888428,-0.339167565107346
209,-18.53125,-16.3377666473389,0.886935651302338,-18,-16.1576385498047,-0.378362953662872
210,-22.2593516209476,-16.3602809906006,0.964634954929352,-9.51620947630923,-16.1559810638428,-0.231069803237915
211,-15.4751773049645,-16.343448638916,0.971644759178162,-17.709219858156,-16.1407089233398,-0.108580976724625
212,-20.1238095238095,-16.3630523681641,-0.259574413299561,-12.0190476190476,-16.0608367919922,-0.010712799616158
213,-20.9467455621302,-16.362024307251,0.921720266342163,-7.11834319526627,-15.9847917556763,0.0232173874974251
214,-12.9473684210526,-16.3116130828857,0.932268261909485,-18.4736842105263,-16.0339984893799,0.189688071608543
215,-12,-16.2549839019775,1.12847256660461,-16,-16.0322017669678,0.296455025672913
216,-16.9275362318841,-16.2611675262451,0.141071796417236,-16.0579710144928,-16.040189743042,0.280770927667618
217,-18,-16.2744998931885,1.23527872562408,-15.7529411764706,-16.0250816345215,0.252176403999329
218,-18,-16.2720813751221,1.22425448894501,-24,-16.0860767364502,0.123005829751492
219,-16.9090909090909,-16.2559700012207,1.21957421302795,-22,-16.1124286651611,0.0285676456987858
220,-12.6380952380952,-16.2068901062012,1.18960237503052,-12.5714285714286,-16.0892505645752,-0.0779686868190765
221,-12.6878048780488,-16.1521282196045,1.10724067687988,-15.0975609756098,-16.0949745178223,-0.28561544418335
222,-20,-16.1387939453125,0.973045289516449,-18,-16.1084060668945,-0.420262306928635
223,-15.1574803149606,-16.1198444366455,0.888928592205048,-18,-16.1275463104248,-0.218120470643044
224,-13.5,-16.0631771087646,0.761272192001343,-16.9868421052632,-16.1429233551025,0.0375595018267632
225,-16,-16.0331401824951,0.781345129013062,-10,-16.1029224395752,0.16218675673008
226,-18.282722513089,-16.0393371582031,1.21992695331573,-10.6858638743456,-16.0779266357422,0.31518965959549
227,-17.3174603174603,-16.0702381134033,0.992434978485107,-14.8941798941799,-16.030553817749,0.413874387741089
228,-12.9295774647887,-16.0497665405273,0.881126940250397,-15.0140845070423,-16.0239810943604,0.275640219449997
229,-14.6648044692737,-16.0064582824707,0.798527956008911,-12.2346368715084,-15.9722137451172,0.149950727820396
230,-11.1169590643275,-16.0130176544189,0.908969104290009,-14.3216374269006,-15.9606380462646,0.193957030773163
231,-10.4322580645161,-15.9936017990112,0.40014922618866,-18.1741935483871,-15.9707651138306,0.197717130184174
232,-14.622641509434,-15.9871435165405,0.895499765872955,-14,-15.9260396957397,0.177153319120407
233,-15.855,-16.0200862884521,1.22543597221375,-9.355,-15.8489847183228,0.122855298221111
234,-14.0473537604457,-15.9804019927979,1.26568949222565,-18.3899721448468,-15.851583480835,-0.0498190373182297
235,-13.6493506493506,-15.9979734420776,1.16772210597992,-16.8831168831169,-15.8308038711548,-0.192403420805931
236,-16.3484419263456,-15.9736299514771,1.17039489746094,-20.8158640226629,-15.9029102325439,-0.163021460175514
237,-16,-15.9602966308594,1.13874876499176,-16,-15.9162435531616,-0.193706184625626
238,-19.3623188405797,-15.9721059799194,1.06537973880768,-16.9384057971014,-15.8938636779785,-0.22383975982666
239,-10,-15.9454393386841,1.25013494491577,-12,-15.8805303573608,-0.123492658138275
240,-11.6481481481481,-15.9830942153931,1.30202853679657,-10.537037037037,-15.8307781219482,0.230246335268021
241,-15.4201183431953,-16.0458946228027,1.13912785053253,-7.05325443786982,-15.7977991104126,0.633472204208374
242,-5.62295081967213,-16.011625289917,0.969570577144623,-11.2704918032787,-15.7722606658936,0.709999561309814
243,-16.3636363636364,-16.0384292602539,0.291796833276749,-16.8863636363636,-15.7648372650146,0.546279191970825
244,-16.7234042553191,-16.0657386779785,1.01622223854065,-14.9787234042553,-15.7709474563599,0.409560739994049
245,-12,-16.0114841461182,1.07032096385956,-10,-15.722393989563,0.431531399488449
246,-14.6739130434783,-15.9972686767578,1.11648404598236,-13.4673913043478,-15.7104148864746,0.457297742366791
247,-15.6049723756906,-16.0059642791748,1.0665328502655,-16.767955801105,-15.7568502426147,0.337704688310623
248,-14.0621118012422,-16.0063800811768,1.08503842353821,-12.8819875776398,-15.722731590271,0.142712816596031
249,-16,-15.9955587387085,0.971857845783234,-9.3219512195122,-15.6632146835327,0.108074761927128
250,-12.6574074074074,-15.9806985855103,0.381675958633423,-18.0694444444444,-15.6330709457397,0.129904255270958
251,-14.8614958448753,-15.930627822876,1.01202583312988,-19.4986149584488,-15.6250257492065,-0.158766105771065
252,-14.2694300518135,-15.9057588577271,1.04384696483612,-18.0051813471503,-15.6231050491333,-0.476635873317719
253,-10.9307359307359,-15.892840385437,1.09819710254669,-15.5151515151515,-15.6328983306885,-0.525980174541473
254,-14,-15.9061737060547,1.12118136882782,-13.7241379310345,-15.6577262878418,-0.333805084228516
255,-23.5401069518717,-15.9431066513062,1.00989377498627,-14.1336898395722,-15.6640090942383,0.0195611566305161
256,-14,-15.9250574111938,0.852415978908539,-18,-15.6572704315186,0.20088529586792
257,-14,-15.8983907699585,1.0080349445343,-10,-15.6284914016724,0.302697747945786
258,-11.1149425287356,-15.8668746948242,1.22910583019257,-15.1149425287356,-15.6597833633423,0.535248696804047
259,-13.8755760368664,-15.8299741744995,1.35434532165527,-10.9539170506912,-15.6204538345337,0.648283004760742
260,-6,-15.7610158920288,1.37278294563293,-12,-15.5889959335327,0.660064995288849
261,-16.4588235294118,-15.7640724182129,1.3373955488205,-18.6470588235294,-15.6466426849365,0.666885673999786
262,-17.1957671957672,-15.804518699646,1.30104231834412,-17.3174603174603,-15.6420927047729,0.482370972633362
263,-8.47619047619048,-15.7548828125,5.36885929107666,-20,-15.6562547683716,0.242578953504562
264,-12.3203883495146,-15.6770181655884,1.35050070285797,-18.5825242718447,-15.6749219894409,0.168913304805756
265,-9.41935483870968,-15.6190881729126,1.20765364170074,-16.741935483871,-15.6642875671387,0.0442428402602673
266,-12.9202127659574,-15.5852241516113,1.2305189371109,-15.1063829787234,-15.6601657867432,-0.0598754025995731
267,-4.25,-15.5260725021362,1.25654268264771,-14.0054347826087,-15.6446857452393,0.0418933071196079
268,-16.6821705426357,-15.5039529800415,1.16503417491913,-12.4573643410853,-15.6477346420288,0.164214059710503
269,-10.3967391304348,-15.4799318313599,1.06496787071228,-11.3260869565217,-15.5765752792358,0.173944860696793
270,-20,-15.5693244934082,1.00248956680298,-20,-15.5977869033813,0.291243880987167
271,-14,-15.5654392242432,1.10206592082977,-14,-15.5805683135986,0.34051850438118
272,-18.5084033613445,-15.5527248382568,1.16093218326569,-11.4243697478992,-15.5317430496216,0.33082976937294
273,-10.8093525179856,-15.504786491394,1.07687342166901,-18.6906474820144,-15.5496807098389,0.386079102754593
274,-15.0944444444444,-15.4387502670288,1.14500784873962,-17.5555555555556,-15.5892791748047,0.14908792078495
275,-14.6449704142012,-15.4118623733521,2.35447883605957,-14.3254437869822,-15.572021484375,-0.0389578193426132
276,-14,-15.3540544509888,1.33942568302155,-16,-15.5834407806396,0.0530338995158672
277,-14.7752808988764,-15.3325567245483,1.37129831314087,-16.6123595505618,-15.5875225067139,0.205959528684616
278,-16,-15.3192234039307,1.32789444923401,-18,-15.6109504699707,0.243997842073441
279,-12.4505494505495,-15.2955598831177,1.18995833396912,-12.010989010989,-15.6110219955444,0.302699059247971
280,-12.5314285714286,-15.2779541015625,1.181316614151,-16.3314285714286,-15.5865659713745,0.437136173248291
281,-12.5253164556962,-15.2620763778687,1.15640616416931,-17.126582278481,-15.5915966033936,0.256342828273773
282,-18.3333333333333,-15.2869234085083,1.12618291378021,-17.3063063063063,-15.6080226898193,0.128788232803345
283,-10.4360902255639,-15.2638931274414,1.03341579437256,-15.0375939849624,-15.6332321166992,0.261748671531677
284,-14.6265060240964,-15.2947359085083,1.06140351295471,-10.6265060240964,-15.5707426071167,0.364902257919312
285,-20.2775330396476,-15.3099222183228,0.933545410633087,-9.71806167400881,-15.515528678894,0.284916639328003
286,-20,-15.314600944519,0.943506062030792,-20,-15.5364274978638,0.117825970053673
287,-18,-15.2989387512207,0.795428156852722,-16.6986301369863,-15.5167465209961,0.0917448252439499
288,-17.7639484978541,-15.3240327835083,1.07586312294006,-11.0858369098712,-15.4523954391479,0.210610136389732
289,-8.38650306748466,-15.2843713760376,1.11097323894501,-14,-15.4657287597656,0.280969321727753
290,-22,-15.3329153060913,0.897125661373138,-20,-15.4657287597656,0.00110768154263496
291,-22.9857142857143,-15.3928956985474,0.0246061086654663,-16,-15.4657287597656,-0.283799976110458
292,-18,-15.4090900421143,1.05933046340942,-12.0643274853801,-15.4087924957275,-0.162642806768417
293,-10,-15.3690900802612,1.24029088020325,-16,-15.4487924575806,0.122830331325531
294,-16.7724550898204,-15.3475732803345,0.396742403507233,-10.3473053892216,-15.4111070632935,0.368898034095764
295,-20,-15.3742399215698,1.31770372390747,-10,-15.3804788589478,0.663729965686798
296,-13,-15.3542394638062,1.3337824344635,-14.7236842105263,-15.3853063583374,0.814400196075439
297,-14,-15.3492403030396,1.28537845611572,-10.6705882352941,-15.3605356216431,0.736657738685608
298,-18.1844660194175,-15.3638038635254,1.24379634857178,-17.0970873786408,-15.3678503036499,0.483903408050537
299,-17.7877551020408,-15.3697538375854,1.09046900272369,-22.5387755102041,-15.3847742080688,0.207268640398979
300,-14.0519480519481,-15.331561088562,0.963944733142853,-14,-15.370906829834,-0.00886215083301067
301,-18,-15.3552198410034,0.176466763019562,-18.6125654450262,-15.3943061828613,-0.10732601583004
302,-20.2248062015504,-15.4100522994995,0.534117937088013,-18.2170542635659,-15.4090871810913,-0.0153523003682494
303,-15.1811594202899,-15.4179267883301,0.76627516746521,-16.0471014492754,-15.4227342605591,-0.0984496623277664
304,-20,-15.4329032897949,0.669432938098907,-14.1,-15.3834018707275,-0.338749557733536
305,-17.0573248407643,-15.4119987487793,1.0888569355011,-13.5541401273885,-15.3612632751465,-0.281292974948883
306,-16,-15.3915395736694,0.969753503799438,-17.0112359550562,-15.3580694198608,-0.19465559720993
307,-14.9113924050633,-15.4114255905151,-0.0321836471557617,-14,-15.3668785095215,-0.185144618153572
308,-16.6785714285714,-15.3949003219604,4.54268980026245,-18,-15.4028348922729,-0.0564507283270359
309,-12.819512195122,-15.381591796875,1.3843195438385,-14.1756097560976,-15.3990917205811,0.197150349617004
310,-11.1381215469613,-15.3456687927246,1.21500253677368,-12.6961325966851,-15.3554878234863,0.219563886523247
311,-16,-15.3456382751465,1.16936278343201,-18,-15.3421545028687,0.133314967155457
312,-17,-15.3789710998535,1.17749619483948,-15.5921052631579,-15.3261022567749,0.193130508065224
313,-14,-15.3850212097168,1.20670068264008,-14,-15.2934198379517,0.308292627334595
314,-12,-15.3450212478638,1.34286665916443,-12,-15.2623338699341,0.505410492420197
315,-12,-15.3549871444702,1.42536234855652,-12,-15.2251062393188,0.772812843322754
316,-19.6857142857143,-15.3395586013794,0.603179037570953,-16.9904761904762,-15.2553939819336,0.717849254608154
317,-8,-15.272891998291,1.41289389133453,-10,-15.2153940200806,0.460246711969376
318,-3.89711934156379,-15.1825094223022,1.42569053173065,-12.9506172839506,-15.2031869888306,0.410596638917923
319,-18.1629213483146,-15.1702632904053,1.35404860973358,-14.8876404494382,-15.2091045379639,0.434324502944946
320,-16,-15.1702632904053,0.20633602142334,-11.3181818181818,-15.1928176879883,0.192384466528893
321,-18.6666666666667,-15.1686229705811,1.42333471775055,-18.65,-15.2440786361694,0.042773425579071
322,-10.3899371069182,-15.1281642913818,1.35903465747833,-12,-15.1846303939819,0.124203309416771
323,-14,-15.1102209091187,1.13613307476044,-14.186170212766,-15.1762418746948,0.20020067691803
324,-18.6923076923077,-15.113338470459,1.08874881267548,-16.6449704142012,-15.1970405578613,0.0287736915051937
325,-16.3641025641026,-15.0986862182617,0.636077046394348,-11.7179487179487,-15.1661720275879,-0.210161924362183
326,-16.8863636363636,-15.0843257904053,0.969562411308289,-14.6761363636364,-15.1396579742432,-0.0317096188664436
327,-16,-15.1087989807129,0.604168117046356,-18.1506849315068,-15.1217613220215,0.121721900999546
328,-14.131455399061,-15.1012535095215,0.999958217144012,-16.6103286384977,-15.1089878082275,0.00272686313837767
329,-22,-15.1412534713745,0.127606868743896,-20.877094972067,-15.1415023803711,-0.0483676232397556
330,-16,-15.1376285552979,0.970900654792786,-24,-15.2236490249634,-0.128612488508224
331,-14,-15.1618394851685,1.16829907894135,-6,-15.1581220626831,-0.0858209878206253
332,-12.1659388646288,-15.1406412124634,1.31950354576111,-16.3406113537118,-15.1528348922729,0.23976132273674
333,-10.875,-15.1149606704712,1.31876468658447,-15.25,-15.1370477676392,0.33083713054657
334,-16.7828571428571,-15.1482486724854,1.2124617099762,-20,-15.1907682418823,0.198387503623962
335,-12.2122448979592,-15.1079816818237,1.40072000026703,-16.0530612244898,-15.2171649932861,0.0805421471595764
336,-18,-15.1671581268311,1.42157280445099,-14.1954022988506,-15.2002096176147,-0.12636137008667
337,-18.3403361344538,-15.1960124969482,1.40185868740082,-6.91596638655462,-15.1721811294556,-0.174626857042313
338,-6.5503355704698,-15.1297168731689,1.42458057403564,-16.5906040268456,-15.1938705444336,0.011910074390471
339,-20,-15.1424608230591,1.3939950466156,-15.7088607594937,-15.189040184021,0.160879299044609
340,-17.027027027027,-15.1493062973022,1.38478183746338,-14,-15.1623725891113,0.0893854275345802
341,-12.2481203007519,-15.0935201644897,1.38597404956818,-20.6691729323308,-15.1735420227051,0.0691167339682579
342,-19.7817679558011,-15.1434555053711,1.3574206829071,-14.5027624309392,-15.187032699585,0.136723577976227
343,-22,-15.2101221084595,1.37989294528961,-12,-15.1736993789673,0.226909086108208
344,-13.4507042253521,-15.1797933578491,1.37076663970947,-16,-15.187032699585,0.349048644304276
345,-14.2207792207792,-15.1965703964233,1.27323126792908,-12.2380952380952,-15.1432552337646,0.390905320644379
346,-11.6866666666667,-15.1544828414917,1.21795225143433,-14.5533333333333,-15.1646709442139,0.340871602296829
347,-16,-15.149600982666,1.29024469852448,-14.1169590643275,-15.1497888565063,0.256461203098297
348,-12.5463414634146,-15.0964260101318,1.16541421413422,-15.1024390243902,-15.1542596817017,0.182613044977188
349,-13.2727272727273,-15.0782442092896,1.13840520381927,-18.25,-15.1292591094971,0.157211318612099
350,-12.6982543640898,-15.1291437149048,1.13616144657135,-18.2069825436409,-15.180850982666,0.190840199589729
351,-18.4351851851852,-15.1356105804443,1.18102538585663,-14.537037037037,-15.1541976928711,0.188128650188446
352,-15.4347826086957,-15.1136455535889,1.71898460388184,-22,-15.2238836288452,-0.0476990155875683
353,-10,-15.064471244812,1.23550415039062,-12,-15.1778450012207,-0.215725630521774
354,-20.2631578947368,-15.0752477645874,1.4274240732193,-16.6315789473684,-15.1897430419922,-0.0145071586593986
355,-20.8253968253968,-15.078652381897,1.1103515625,-16.9333333333333,-15.1738090515137,0.184264898300171
356,-8.96052631578947,-15.0578632354736,1.21712923049927,-18.8640350877193,-15.1795701980591,0.131683528423309
357,-16.815668202765,-15.0342283248901,1.00252509117126,-18.36866359447,-15.186954498291,-0.0192621797323227
358,-12.4082840236686,-15.007043838501,1.38863146305084,-14.5798816568047,-15.1442775726318,-0.142194479703903
359,-16,-14.9901695251465,0.261502653360367,-24,-15.1842775344849,-0.243930757045746
360,-8,-14.8951072692871,1.44795191287994,-16,-15.227502822876,-0.232341393828392
361,-9.85534591194969,-14.8576412200928,1.47186589241028,-20.6477987421384,-15.2470951080322,-0.0641468465328217
362,-15.1176470588235,-14.8242673873901,1.422771692276,-18.7294117647059,-15.2918291091919,-0.0558754242956638
363,-20,-14.8179559707642,1.47688472270966,-16,-15.3510398864746,-0.143201798200607
364,-15.5983606557377,-14.8356294631958,1.49255812168121,-18.1885245901639,-15.349139213562,0.0540012866258621
365,-11.8947368421053,-14.8349266052246,0.883626341819763,-17.0657894736842,-15.3562450408936,0.0853550955653191
366,-8,-14.7754096984863,1.48250436782837,-14,-15.3425245285034,-0.0106079177930951
367,-16,-14.7620763778687,1.52942264080048,-16,-15.3441715240479,0.233852744102478
368,-18,-14.7620763778687,1.53845191001892,-16.7087378640777,-15.2955627441406,0.52666836977005
369,-16,-14.7560176849365,1.51490676403046,-14,-15.2422294616699,0.523401618003845
370,-16.5029585798817,-14.7817821502686,1.44656336307526,-14.9585798816568,-15.2581443786621,0.352907747030258
371,-18.3544303797468,-14.81955909729,-0.0266007781028748,-12,-15.2374954223633,0.164447665214539
372,-19.3712871287129,-14.8153676986694,1.26704251766205,-20,-15.250828742981,0.214454159140587
373,-16.4232804232804,-14.823805809021,1.31395328044891,-12.4232804232804,-15.2136507034302,0.362358123064041
374,-14.0051813471503,-14.8271741867065,1.0596479177475,-13.5233160621762,-15.1905603408813,0.392599731683731
375,-12.125,-14.8013410568237,1.35964965820312,-18.6607142857143,-15.2482976913452,0.318349301815033
376,-16.5594713656388,-14.7898530960083,1.41060507297516,-17.4405286343612,-15.2933301925659,0.035521574318409
377,-13.2935153583618,-14.7630271911621,0.625614762306213,-22.2252559726962,-15.3422040939331,-0.134222641587257
378,-16,-14.7834959030151,0.536857008934021,-14.8263473053892,-15.3409509658813,-0.534920871257782
379,-14.0909090909091,-14.7796716690063,1.39893925189972,-16,-15.3660545349121,-0.324514865875244
380,-10.8085106382979,-14.7776136398315,1.4768693447113,-20,-15.4039096832275,-0.754654169082642
381,-18,-14.8280668258667,1.44893491268158,-10,-15.3494138717651,-0.321273654699326
382,-16,-14.8372497558594,1.32721674442291,-18.3333333333333,-15.3783044815063,0.826120436191559
383,-10,-14.7982158660889,1.54238629341125,-14,-15.4092712402344,0.796398341655731
384,-18.4204545454545,-14.8273696899414,1.59785878658295,-14.875,-15.3858366012573,0.416332006454468
385,-10.9009900990099,-14.809045791626,1.03311085700989,-20.5940594059406,-15.4105758666992,0.045771062374115
386,-20,-14.8333883285522,1.1592652797699,-17.3529411764706,-15.387490272522,0.016897926107049
387,-12,-14.8067216873169,1.61805021762848,-18,-15.4008235931396,-0.0196635872125626
388,-14,-14.7709732055664,1.6107325553894,-18,-15.407901763916,0.0930604562163353
389,-19.1774891774892,-14.8321580886841,1.37940311431885,-20.2380952380952,-15.4628219604492,0.277091413736343
390,-22.7571428571429,-14.9062175750732,-0.156824171543121,-21.4,-15.5352420806885,0.227920472621918
391,-15.1176470588235,-14.904200553894,1.19384706020355,-17.1176470588235,-15.6023368835449,-0.159828215837479
392,-10.9727272727273,-14.939866065979,1.22650063037872,-9.51818181818182,-15.5906562805176,-0.349383354187012
393,-14.5687732342007,-14.9279003143311,1.3240088224411,-18.4200743494424,-15.6008806228638,-0.188272535800934
394,-20.855,-14.9554443359375,1.20527350902557,-18.455,-15.6240558624268,-0.111317776143551
395,-2,-14.8887777328491,1.22660481929779,-12,-15.6373891830444,-0.11882708966732
396,-13.3824884792627,-14.8801689147949,1.48443746566772,-12.1244239631336,-15.628436088562,0.101016968488693
397,-16,-14.8828029632568,1.37400138378143,-18,-15.6366491317749,0.210866391658783
398,-20.8181818181818,-14.9278421401978,0.3302903175354,-14.6590909090909,-15.6484956741333,-0.0428831465542316
399,-14,-14.9145088195801,0.858151078224182,-18.0926829268293,-15.7069673538208,-0.111600428819656
400,-12.7510729613734,-14.9151334762573,0.969570100307465,-9.66523605150214,-15.6509389877319,-0.15442319214344
401,-12.7953216374269,-14.9013586044312,1.03881824016571,-14.7894736842105,-15.6195459365845,-0.312012761831284
402,-12.8791208791209,-14.89208984375,-0.147249788045883,-18.2197802197802,-15.6209764480591,-0.381003946065903
403,-22,-14.9658851623535,1.50438582897186,-16,-15.6242094039917,-0.439597934484482
404,-11.0697674418605,-14.9463491439819,0.566666722297668,-14.5581395348837,-15.6297693252563,-0.138143852353096
405,-13.3398058252427,-14.8783483505249,1.44808578491211,-24,-15.6955432891846,0.00102619885001332
406,-10.6838709677419,-14.856240272522,0.746216416358948,-18.941935483871,-15.7018232345581,-0.135890766978264
407,-16,-14.8695735931396,1.53299605846405,-16,-15.7418231964111,-0.153501883149147
408,-18,-14.9154748916626,1.65077424049377,-4,-15.6677227020264,0.159138366580009
409,-14.4485981308411,-14.9192934036255,1.59050130844116,-13.0934579439252,-15.6819877624512,0.521592140197754
410,-12.6137566137566,-14.9633855819702,1.56121373176575,-16.0687830687831,-15.7091112136841,0.693202078342438
411,-6,-14.8936624526978,1.59118962287903,-12,-15.6647977828979,0.722853422164917
412,-16.2803738317757,-14.8875589370728,1.565220952034,-14.2523364485981,-15.6443653106689,0.743974208831787
413,-12.8544303797468,-14.9167461395264,1.32957541942596,-14.8544303797468,-15.6100616455078,0.772524476051331
414,-19.1493902439024,-14.9622735977173,1.21838104724884,-20,-15.6195116043091,0.692917168140411
415,-12.9732620320856,-14.9859666824341,1.44275295734406,-12.0053475935829,-15.5879325866699,0.540371239185333
416,-18.8311688311688,-15.025372505188,1.6771514415741,-13.6753246753247,-15.5783939361572,0.340355277061462
417,-16.6323119777159,-15.1079216003418,1.08373379707336,-17.7298050139276,-15.6032228469849,0.182201191782951
418,-12.1578947368421,-15.0777587890625,1.04213917255402,-18.7320574162679,-15.6450538635254,0.0196645800024271
419,-16,-15.1151142120361,0.889200747013092,-12,-15.6495456695557,-0.114011235535145
420,-12.1076487252125,-15.0624980926514,1.06139981746674,-14.4759206798867,-15.612717628479,0.0529244765639305
421,-13.4652173913043,-15.058934211731,1.13135600090027,-8.18695652173913,-15.5739650726318,0.119584210216999
422,-16,-15.0422105789185,1.10992002487183,-18,-15.6178026199341,0.0182081684470177
423,-10.6449704142012,-15.0411148071289,0.666456282138824,-16,-15.5998649597168,-0.0559985563158989
424,-13.5263157894737,-15.0306606292725,1.04931640625,-13.4912280701754,-15.5727701187134,-0.111644618213177
425,-16.7956989247312,-15.0450000762939,1.07235443592072,-10.0967741935484,-15.5445785522461,0.0356958135962486
426,-14.314606741573,-15.0470962524414,1.08672714233398,-14,-15.5312452316284,0.141098171472549
427,-14.5287356321839,-15.0454540252686,1.12382006645203,-16.5287356321839,-15.5306882858276,0.0818149298429489
428,-16.8173515981735,-15.0509033203125,1.20268225669861,-16.7260273972603,-15.5221939086914,0.155860260128975
429,-20,-15.1012325286865,1.3056218624115,-6,-15.4821224212646,0.190942510962486
430,-18.5674418604651,-15.1414728164673,1.33738994598389,-13.4372093023256,-15.4628257751465,0.307747781276703
431,-11.1907514450867,-15.1325750350952,1.19081020355225,-8.72832369942197,-15.4068374633789,0.436220765113831
432,-22,-15.157018661499,1.12437868118286,-18,-15.4114618301392,0.485787361860275
433,-19.3884892086331,-15.2167024612427,0.777030229568481,-12.8741007194245,-15.3970394134521,0.409190893173218
434,-9.50310559006211,-15.1825456619263,0.895726382732391,-10.3167701863354,-15.3949737548828,0.458013296127319
435,-14.53125,-15.1442365646362,0.995664715766907,-18,-15.4501867294312,0.325707733631134
436,-6.0887573964497,-15.0514945983887,0.380373895168304,-12,-15.3968534469604,0.361637622117996
437,-16.179347826087,-15.0393590927124,1.39157724380493,-22,-15.4321956634521,0.49008572101593
438,-10,-14.9875974655151,1.51842403411865,-8,-15.4116239547729,0.614751696586609
439,-22,-15.0783548355103,1.50143647193909,-16.4243323442136,-15.4277868270874,0.734213590621948
440,-2,-14.9450216293335,1.3337824344635,-10,-15.361120223999,0.722000956535339
441,-6,-14.8317842483521,1.47290217876434,-10,-15.321120262146,1.16991209983826
442,-18.8275862068966,-14.8373012542725,1.57128536701202,-18.3936781609195,-15.3633155822754,0.792480647563934
443,-16,-14.8773012161255,0.177670180797577,-13.8322580645161,-15.3488636016846,0.829778790473938
444,-14,-14.8588180541992,1.4266904592514,-22,-15.426549911499,0.830732464790344
445,-15.5326086956522,-14.8290328979492,1.52082669734955,-20,-15.4932165145874,0.802856743335724
446,-13.9418282548476,-14.8353128433228,1.43182837963104,-16,-15.5017232894897,0.537241041660309
447,-16.2028985507246,-14.8500003814697,1.17126536369324,-15.6328502415459,-15.5348062515259,0.365551441907883
448,-14,-14.8221025466919,1.04887199401855,-12.8085106382979,-15.5062160491943,0.389455556869507
449,-20,-14.8368501663208,1.03980386257172,-11.3703703703704,-15.4317598342896,0.288693070411682
450,-14.2453987730061,-14.8381414413452,0.898935079574585,-11.079754601227,-15.4122915267944,0.664519071578979
451,-12,-14.7981414794922,1.009889960289,-6,-15.3282079696655,1.01703298091888
452,-8,-14.7166423797607,1.26344072818756,-16,-15.3134279251099,1.00790166854858
453,-14,-14.7087678909302,0.461445808410645,-14.9342105263158,-15.3060073852539,0.223599851131439
454,-18.5248226950355,-14.6989336013794,1.45013153553009,-14.5248226950355,-15.3088397979736,0.740901708602905
455,-16.1906976744186,-14.6931562423706,1.35336661338806,-9.46976744186047,-15.2816114425659,0.683561205863953
456,-14.7852760736196,-14.68505859375,1.33165085315704,-12.3374233128834,-15.250452041626,0.558179259300232
457,-12.5782608695652,-14.6695032119751,1.26821959018707,-16.5347826086957,-15.2673501968384,0.75838166475296
458,-10.1560975609756,-14.6260204315186,1.23191213607788,-15.0634146341463,-15.2477731704712,0.497092753648758
459,-8.73584905660377,-14.5987968444824,1.23438131809235,-20.5283018867925,-15.2901239395142,0.286613613367081
460,-16,-14.6312093734741,1.4517719745636,-10,-15.2721500396729,0.299427360296249
461,-10.0260223048327,-14.591383934021,1.572882771492,-18.271375464684,-15.2739601135254,0.522811114788055
462,-16.5699658703072,-14.5885152816772,0.720715999603271,-18.3139931740614,-15.2921056747437,-0.605380773544312
463,-22,-14.6418485641479,1.3325275182724,-8.55921052631579,-15.2558336257935,0.527393579483032
464,-6,-14.6018486022949,1.22456681728363,-2,-15.1891670227051,1.10236239433289
465,-15.3166666666667,-14.6239595413208,1.39502561092377,-16.9055555555556,-15.2218713760376,0.871421217918396
466,-12.2189349112426,-14.5741815567017,1.40267515182495,-18.189349112426,-15.2298650741577,0.643294155597687
467,-16.1796116504854,-14.6287107467651,1.32939457893372,-18,-15.2831983566284,0.572435975074768
468,-18.6753246753247,-14.7272329330444,1.33771932125092,-18.6753246753247,-15.3213624954224,0.65861040353775
469,-16.0676691729323,-14.7132654190063,1.34610199928284,-18.1804511278195,-15.3433141708374,0.630774736404419
470,-16.9647058823529,-14.7196960449219,1.2419685125351,-24,-15.4278583526611,0.466751843690872
471,-18,-14.7152519226074,1.16056072711945,-12.9891304347826,-15.390118598938,0.261703431606293
472,-10,-14.7126531600952,1.25763058662415,-10,-15.3767852783203,0.331865638494492
473,-18.4112554112554,-14.7420606613159,1.45240879058838,-8.33766233766234,-15.3377962112427,0.606863558292389
474,-13.7954545454545,-14.709415435791,1.50787329673767,-16.6136363636364,-15.3375883102417,0.801293909549713
475,-4,-14.6269874572754,1.60924327373505,-4,-15.2861347198486,0.865424275398254
476,-22.9867841409692,-14.6676578521729,1.5983179807663,-17.0837004405286,-15.3021841049194,0.974560618400574
477,-14,-14.6543245315552,1.41320705413818,-6,-15.2211818695068,0.905162215232849
478,-16,-14.6667804718018,1.35282039642334,-16.8564814814815,-15.2228221893311,0.900406539440155
479,-18,-14.6401138305664,1.30600273609161,-15.0994475138122,-15.18430519104,0.865372002124786
480,-14,-14.6267805099487,1.08699798583984,-12.8487394957983,-15.1099624633789,0.450590461492538
481,-16.0217391304348,-14.6402606964111,1.0367568731308,-16.4619565217391,-15.1797065734863,0.537756562232971
482,-13.1114206128134,-14.6465625762939,0.998823761940002,-15.9860724233983,-15.1773433685303,0.722497999668121
483,-17.3966005665722,-14.6900386810303,0.985356628894806,-18.3626062322946,-15.1980953216553,0.721808075904846
484,-16.1784037558685,-14.6860094070435,0.586538434028625,-17.1267605633803,-15.1789407730103,0.397075057029724
485,-14.9939024390244,-14.704553604126,1.15015983581543,-18.3719512195122,-15.1943998336792,0.397699028253555
486,-10,-14.6512203216553,1.26985347270966,-12,-15.1797637939453,0.765685737133026
487,-4,-14.5556182861328,1.55309009552002,-10,-15.2003240585327,1.02887654304504
488,-16,-14.618616104126,1.63001501560211,-10,-15.1563863754272,0.500825703144073
489,-20,-14.618616104126,1.43132734298706,-17.7009345794393,-15.1696681976318,0.498385578393936
490,-8,-14.5584354400635,1.40317678451538,-8,-15.1296682357788,0.471013307571411
491,-14.4181818181818,-14.5729036331177,1.54249215126038,-18.6090909090909,-15.1159343719482,0.627029120922089
492,-10,-14.5076923370361,1.62998473644257,-6,-15.0592479705811,0.555347919464111
493,-14,-14.4543590545654,1.65243518352509,-10.4219653179191,-15.0487289428711,0.494634479284286
494,-10,-14.4313545227051,1.66119134426117,-14,-15.0353956222534,0.687492907047272
495,-16,-14.4432144165039,1.64517867565155,-12,-15.0338087081909,0.837306439876556
496,-12.1069518716578,-14.4460172653198,1.64377856254578,-10.0053475935829,-15.0034894943237,0.982952833175659
497,-16,-14.4460172653198,1.66169023513794,-16.4375,-15.0189580917358,0.966547131538391
498,-12.1722488038278,-14.4435224533081,1.60252416133881,-20.9234449760766,-15.057765007019,0.607065796852112
499,-16,-14.461706161499,0.395936191082001,-16.9166666666667,-15.0488748550415,0.362174570560455
500,-16.5584415584416,-14.4874382019043,1.42270767688751,-16.5584415584416,-15.0378856658936,0.0974541306495667
501,-10.8354430379747,-14.4367742538452,1.26525473594666,-8,-14.9943065643311,0.476996004581451
502,-11.2125984251969,-14.4086265563965,1.38455379009247,-14.6062992125984,-14.9450149536133,0.732345342636108
503,-6,-14.3819599151611,1.45405387878418,-10,-14.9316816329956,0.811719238758087
504,-12.2225519287834,-14.3283557891846,1.60853111743927,-13.5341246290801,-14.9110298156738,0.823157370090485
505,-20.7640449438202,-14.3279476165771,1.58476769924164,-20,-14.9314746856689,0.491631746292114
506,-16.7029702970297,-14.379563331604,1.23027050495148,-14.1930693069307,-14.9003353118896,0.62272322177887
507,-18,-14.3874597549438,0.871232748031616,-16.075,-14.8850440979004,0.631662786006927
508,-14.3864734299517,-14.4006481170654,0.627041757106781,-10.3333333333333,-14.8567352294922,0.614904463291168
509,-12.212962962963,-14.3754005432129,0.658062160015106,-13.1203703703704,-14.7842044830322,0.495469778776169
510,-16.8245614035088,-14.4342317581177,0.690779566764832,-20.4736842105263,-14.8140287399292,0.777276575565338
511,-18,-14.4885282516479,0.551494061946869,-14,-14.7697086334229,-0.70645147562027
512,-20,-14.5210771560669,0.458121597766876,-18,-14.7648468017578,0.801271080970764
513,-8,-14.4410772323608,0.544476628303528,-8,-14.7115135192871,0.87638646364212
514,-17.2459016393443,-14.4520606994629,0.82623291015625,-15.0327868852459,-14.6904754638672,0.985456168651581
515,-12,-14.4527635574341,0.476047694683075,-16,-14.6833686828613,-0.613961279392242
516,-18.0329218106996,-14.5196485519409,1.02427637577057,-10.7530864197531,-14.6617240905762,0.807071089744568
517,-18.5172413793103,-14.5364303588867,1.12286698818207,-18.7471264367816,-14.6800374984741,0.928059279918671
518,-11.1534391534392,-14.4907865524292,1.26562452316284,-3.83597883597884,-14.5942192077637,1.03043162822723
519,-10.7234042553191,-14.4556083679199,1.35785841941833,-14.2978723404255,-14.5962047576904,0.981314301490784
520,-16,-14.4522562026978,1.38555514812469,-18,-14.6164808273315,0.957952380180359
521,-3.09090909090909,-14.3505001068115,1.43460810184479,-10.4772727272727,-14.6063299179077,0.951577186584473
522,-7.63636363636364,-14.2722654342651,0.598219096660614,-10.8181818181818,-14.5451173782349,1.00991988182068
523,-16.6795580110497,-14.2739744186401,1.55176556110382,-14.0165745856354,-14.555739402771,0.908692181110382
524,-10,-14.247275352478,1.65398418903351,-12,-14.5455827713013,0.808589994907379
525,-16.8914285714286,-14.2790508270264,1.72194576263428,-9.21142857142857,-14.4825878143311,0.749482154846191
526,-14,-14.2619876861572,-0.035343162715435,-12.2197802197802,-14.4477834701538,0.295997202396393
527,-22,-14.320029258728,1.64554679393768,-13.3607305936073,-14.3886861801147,0.94051593542099
528,-13.6648199445983,-14.304461479187,0.226509690284729,-17.8060941828255,-14.4085512161255,0.951156616210938
529,-20.1857142857143,-14.3450946807861,0.837481796741486,-13.7285714285714,-14.3934078216553,0.842119932174683
530,-8.47337278106509,-14.3295259475708,1.1742388010025,-4.88165680473373,-14.2926187515259,0.915658593177795
531,-8.87951807228916,-14.268723487854,1.49655187129974,-13.3614457831325,-14.3150291442871,0.976219415664673
532,-10.282722513089,-14.2306089401245,0.372264117002487,-20.6125654450262,-14.3302249908447,-0.487123727798462
533,-12,-14.2439422607422,1.68461668491364,-6,-14.276891708374,1.14878153800964
534,-13.5343137254902,-14.2113676071167,1.58394253253937,-13.3382352941176,-14.2666454315186,1.1606947183609
535,-10.941935483871,-14.2116403579712,1.74547898769379,-7.29677419354839,-14.1779975891113,0.0661249160766602
536,-20.8604651162791,-14.2173767089844,1.67486226558685,-16.3798449612403,-14.1715106964111,0.903134226799011
537,-18,-14.2573766708374,1.56799077987671,-12,-14.1315107345581,0.875869393348694
538,-8.06914893617021,-14.2178373336792,1.59390008449554,-14.6117021276596,-14.1089210510254,0.957072794437408
539,-18.0449438202247,-14.2102861404419,1.68814134597778,-17.0112359550562,-14.0874090194702,-0.97912585735321
540,-18.4383561643836,-14.1814956665039,0.861694812774658,-15.1232876712329,-14.0455646514893,-0.742366969585419
541,-10,-14.1473779678345,1.74358475208282,-16,-14.0381135940552,1.09364199638367
542,-12,-14.1542272567749,1.79860639572144,-12,-14.0546579360962,1.11877143383026
543,-14,-14.1504344940186,1.80998682975769,-16,-14.0385255813599,1.13595366477966
544,-14,-14.1047344207764,1.68291127681732,-20,-14.0488252639771,1.15146088600159
545,-18,-14.2114009857178,1.56113517284393,-18,-14.0888252258301,0.985396027565002
546,-22,-14.2688512802124,1.37393009662628,-12.0234741784038,-14.0881509780884,0.948489606380463
547,-13.0775510204082,-14.2493686676025,1.15858149528503,-11.0816326530612,-14.0420293807983,0.936769664287567
548,-12,-14.1905794143677,0.0589472651481628,-16.4387096774194,-14.0538930892944,-0.154397368431091
549,-13.0532544378698,-14.1842679977417,1.17417299747467,-11.3550295857988,-14.008975982666,0.871694386005402
550,-14,-14.1925945281982,1.44765317440033,-6,-13.9845409393311,0.946352481842041
551,-12.3707317073171,-14.1897640228271,1.56400299072266,-20,-14.0192775726318,1.00777614116669
552,-16.9707602339181,-14.2170429229736,1.6220064163208,-12.093567251462,-13.9784374237061,1.00682282447815
553,-18.3655913978495,-14.1928129196167,1.64239013195038,-3.83870967741935,-13.8973617553711,0.956017255783081
554,-19.3018292682927,-14.2476921081543,1.54979050159454,-14.2103658536585,-13.8950424194336,0.856593906879425
555,-18.3133333333333,-14.2808494567871,1.46998572349548,-22,-13.8817090988159,0.895042538642883
556,-11.4591194968553,-14.2860193252563,1.53840053081512,-10.3710691823899,-13.8245706558228,0.958541333675385
557,-16.4031746031746,-14.2887048721313,1.64375603199005,-20.1047619047619,-13.8519353866577,0.268270671367645
558,-16.245,-14.2770051956177,1.69963526725769,-10.745,-13.8969011306763,1.08924043178558
559,-16.6588235294118,-14.2917394638062,1.71510219573975,-12.2235294117647,-13.8911037445068,0.508748769760132
560,-14.6687898089172,-14.30544090271,1.67840647697449,-10.6815286624204,-13.855188369751,0.589766204357147
561,-8.8876404494382,-14.3246927261353,1.707399725914,-8.16292134831461,-13.829607963562,0.9255530834198
562,-20,-14.3494901657104,1.73693323135376,-9.69642857142857,-13.7992353439331,1.08758723735809
563,-10.8503740648379,-14.3361291885376,1.67676103115082,-18.5910224438903,-13.8241453170776,1.02513742446899
564,-10.5847953216374,-14.27903175354,1.57002019882202,-16,-13.7974786758423,0.912648797035217
565,-16.4,-14.3018770217896,1.52338337898254,-7.43529411764706,-13.7670116424561,0.877196311950684
566,-9.18115942028986,-14.2375421524048,1.20155477523804,-15.1811594202899,-13.7770509719849,0.987022042274475
567,-4.05389221556886,-14.1536865234375,0.102589845657349,-6.74850299401198,-13.7038412094116,-1.01542496681213
568,-12.1041666666667,-14.1533288955688,1.63239800930023,-20,-13.7122945785522,1.09336578845978
569,-9.54347826086956,-14.1102848052979,1.55796015262604,-16,-13.7389612197876,1.10365545749664
570,-12.5584415584416,-14.1132907867432,1.51697170734406,-12.9090909090909,-13.728515625,0.995961129665375
571,-8,-14.0768575668335,1.58729887008667,-8,-13.7272691726685,1.01148915290833
572,-13.5917159763314,-14.0608005523682,1.76272022724152,-14,-13.7006025314331,1.1094616651535
573,-14.8785046728972,-14.0890235900879,1.82131540775299,-19,-13.7206020355225,1.13171315193176
574,-16.5973154362416,-14.1094970703125,1.7732720375061,-12.006711409396,-13.7107067108154,1.13967573642731
575,-18.7834101382488,-14.1227493286133,1.75489282608032,-14.4930875576037,-13.7400150299072,1.11883056163788
576,-12,-14.1073179244995,1.70124113559723,-10,-13.7133483886719,1.08245539665222
577,-12.144578313253,-14.0914239883423,1.69023835659027,-14.9759036144578,-13.7029962539673,0.994441390037537
578,-11.3545454545455,-14.0550050735474,0.288276731967926,-16.0818181818182,-13.6987009048462,0.152272582054138
579,-15.873786407767,-14.0274963378906,1.56903123855591,-12.378640776699,-13.7412242889404,0.651183247566223
580,-13.7195767195767,-13.9951772689819,1.62966060638428,-7.5978835978836,-13.702296257019,0.699724316596985
581,-15.8157894736842,-14.0260105133057,1.62378799915314,-15.5921052631579,-13.7480554580688,0.873950660228729
582,-10.5287356321839,-13.9495363235474,0.828459978103638,-10.7816091954023,-13.699933052063,0.901857316493988
583,-16,-13.9269466400146,0.530157625675201,-14.5692307692308,-13.7112340927124,-0.403253376483917
584,-13.40625,-13.9529666900635,1.63941323757172,-10.375,-13.7116212844849,0.937408924102783
585,-12.8816568047337,-13.9419708251953,1.71598851680756,-14.4082840236686,-13.6876754760742,-0.448325157165527
586,-18.3478260869565,-14.0236978530884,0.616091728210449,-14.6376811594203,-13.7052602767944,0.883302628993988
587,-11.2700421940928,-13.9909687042236,0.967284440994263,-11.1561181434599,-13.6329689025879,-0.549144446849823
588,-9.09302325581395,-13.9849214553833,1.6419769525528,-15.4651162790698,-13.6827363967896,0.520361542701721
589,-12.1089108910891,-13.918981552124,1.51974833011627,-20.990099009901,-13.7131757736206,0.842999637126923
590,-20,-14.0389814376831,1.7274112701416,-16.647619047619,-13.757493019104,-0.274214029312134
591,-6.59842519685039,-14.0429716110229,1.67783117294312,-10.5984251968504,-13.7614812850952,0.885319888591766
592,-18,-14.0374546051025,1.70678603649139,-14.7947598253275,-13.7374906539917,0.938275933265686
593,-12,-14.0107879638672,1.67325043678284,-10,-13.7119398117065,0.900102972984314
594,-14.8341968911917,-14.0163478851318,1.62307405471802,-18.2124352331606,-13.6866893768311,0.927117645740509
595,-22,-14.0594644546509,1.46951222419739,-4.73684210526316,-13.5849361419678,0.88939380645752
596,-15.4291845493562,-14.0693798065186,1.26858079433441,-12.1630901287554,-13.5593566894531,0.833061814308167
597,-17.3597122302158,-14.0770931243896,1.2401317358017,-17.3597122302158,-13.5708694458008,0.971497595310211
598,-12.63133640553,-14.0679683685303,0.40554603934288,-20,-13.6188125610352,-0.432939738035202
599,-16,-14.0413017272949,1.63729965686798,-16,-13.6496772766113,0.946668565273285
600,-14.5131578947368,-14.0430879592896,1.81357312202454,-15.4385964912281,-13.6787357330322,1.10676765441895
601,-14.2818791946309,-14.0582990646362,1.74527394771576,-20.8590604026846,-13.777795791626,1.1760356426239
602,-12,-14.0849657058716,1.67325985431671,-12,-13.7511291503906,1.19554448127747
603,-11.2899408284024,-14.0668992996216,1.70605337619781,-14,-13.7449007034302,1.11856126785278
604,-14.6744186046512,-14.0412302017212,1.59612011909485,-17.2325581395349,-13.7629528045654,0.980763554573059
605,-10,-13.9999580383301,1.49252915382385,-14,-13.7931547164917,1.01645791530609
606,-17.3187772925764,-14.0168485641479,1.65658068656921,-12,-13.7909049987793,1.05919635295868
607,-14.2151898734177,-14.0277605056763,0.943670511245728,-18,-13.8006725311279,0.134554088115692
608,-12.1804511278195,-14.0412569046021,1.71706104278564,-11.6315789473684,-13.777792930603,1.03597891330719
609,-14,-14.0763511657715,1.71395587921143,-12.8771929824561,-13.7267875671387,0.863315165042877
610,-18.6931818181818,-14.0943069458008,1.67634689807892,-20,-13.7934541702271,0.721633076667786
611,-20,-14.1607990264893,1.61443173885345,-12.8543689320388,-13.7573385238647,0.828810155391693
612,-14.2102272727273,-14.1450681686401,1.51071786880493,-18.4375,-13.7581624984741,0.994319081306458
613,-18,-14.1184015274048,1.42707502841949,-14.4736842105263,-13.7975931167603,1.05003225803375
614,-17.0571428571429,-14.1921157836914,0.141741156578064,-17.5857142857143,-13.9014978408813,-1.07091152667999
615,-16.3316062176166,-14.1988821029663,1.35288178920746,-11.3108808290155,-13.8641996383667,1.00490927696228
616,-7.87719298245614,-14.1699361801147,1.34669804573059,-14.5131578947368,-13.8396921157837,1.10917770862579
617,-15.5255972696246,-14.1655759811401,0.661227881908417,-11.2047781569966,-13.7943916320801,-1.14903223514557
618,0,-14.0410737991333,1.65482831001282,-18,-13.7898874282837,1.07702732086182
619,-22,-14.080623626709,1.79085457324982,-16.2401960784314,-13.7769527435303,1.14624071121216
620,-8,-14.0208597183228,1.85009932518005,-6,-13.6569528579712,1.22182953357697
621,-12.5957446808511,-13.9848308563232,1.89216423034668,-12.8936170212766,-13.6563148498535,1.19600296020508
622,-17.2090909090909,-14.0328903198242,1.92315697669983,-13.6454545454545,-13.6806182861328,0.959998190402985
623,-16.9133858267717,-14.0229053497314,1.89051043987274,-20.8740157480315,-13.7641944885254,0.735184013843536
624,-12.1715976331361,-14.0120782852173,1.25518941879272,-18,-13.7734375,0.577188193798065
625,-11.0285714285714,-14.0589351654053,1.16265940666199,-22,-13.8934373855591,-0.50218939781189
626,-18,-14.0256900787354,1.10442006587982,-18.981308411215,-13.9060869216919,0.456753641366959
627,-12,-14.0123567581177,1.09664130210876,-16,-13.9727535247803,0.584666311740875
628,-17.9197860962567,-14.0251560211182,1.21913766860962,-13.7540106951872,-13.9520702362061,0.92314076423645
629,-8,-13.9584894180298,1.34191703796387,-6,-13.8914079666138,1.1670241355896
630,-16.645,-13.9761228561401,1.40942394733429,-10.555,-13.8761167526245,1.30292439460754
631,-8,-13.9226446151733,1.40919280052185,-14,-13.8597040176392,1.3309919834137
632,-13.104347826087,-13.9225978851318,1.39793503284454,-18.3782608695652,-13.8756513595581,1.30800032615662
633,-16,-13.9132862091064,1.22315549850464,-16.8311688311688,-13.865442276001,1.20082175731659
634,-18.7746478873239,-13.9305944442749,0.91683828830719,-12,-13.831262588501,1.10047626495361
635,-12.9494382022472,-13.9169645309448,0.732890605926514,-18.6629213483146,-13.8332033157349,1.14632451534271
636,-12.1028571428571,-13.930983543396,0.841171324253082,-10.9885714285714,-13.8264617919922,1.2295503616333
637,-14.2916666666667,-13.9995946884155,1.0634857416153,-16.75,-13.8714618682861,1.1853175163269
638,-20.9649122807018,-14.032693862915,1.0532990694046,-12.7368421052632,-13.8897066116333,1.09845793247223
639,-17.7045454545455,-14.017391204834,0.815379977226257,-6.06818181818182,-13.8121547698975,0.0738573670387268
640,-10,-14.0307245254517,0.799468815326691,-14,-13.8521547317505,1.13913083076477
641,-3.30072463768116,-13.9566078186035,1.02473199367523,-18.3840579710145,-13.8506555557251,-0.151856780052185
642,-10,-13.9566078186035,1.25660276412964,-16,-13.9173221588135,1.28119707107544
643,-14,-13.9566078186035,1.31629240512848,-8.34730538922156,-13.9034910202026,-0.0304034948348999
644,-13.126582278481,-13.9774532318115,1.27084040641785,-14,-13.9034910202026,1.2329922914505
645,-12.1581395348837,-13.9518404006958,1.21948659420013,-13.4744186046512,-13.9133205413818,0.972023606300354
646,-14.5806451612903,-13.9683313369751,1.17622673511505,-18,-13.9666175842285,0.714404463768005
647,-16,-13.9683313369751,1.12749171257019,-14,-13.9503679275513,0.785879194736481
648,-16,-13.9938497543335,1.25633382797241,-19.444976076555,-13.9405107498169,-1.27513957023621
649,-11.2912621359223,-13.9624576568604,1.24832844734192,-11,-13.901065826416,1.07288599014282
650,-13.4464285714286,-13.9417104721069,1.13072001934052,-10,-13.8573436737061,1.10607552528381
651,-16.9826589595376,-13.9826917648315,0.882402658462524,-14,-13.8973436355591,0.908411383628845
652,-16.7037037037037,-14.0193004608154,0.707029163837433,-16.7724867724868,-13.9117851257324,0.937735259532928
653,-14,-14.0726337432861,0.691800951957703,-15.2873563218391,-13.9470348358154,1.02596604824066
654,-12,-14.0711488723755,0.766839146614075,-10,-13.9234733581543,1.08956336975098
655,-16,-14.0393877029419,0.955963790416718,-5.07834101382488,-13.82399559021,1.13701689243317
656,-16,-14.0347023010254,0.994543612003326,-3.43478260869565,-13.7522735595703,1.24602878093719
657,-9.06024096385542,-13.9751043319702,1.00569462776184,-16.6506024096386,-13.7561120986938,1.27972412109375
658,-10,-13.9458608627319,1.19630300998688,-2,-13.7005567550659,1.27744102478027
659,-18.2394957983193,-13.9860382080078,1.3202611207962,-14.7521008403361,-13.7114343643188,1.29610431194305
660,-14.4672897196262,-13.9703235626221,1.12906241416931,-8.06542056074766,-13.6287126541138,1.2506959438324
661,-1.71052631578947,-13.8617267608643,0.902797222137451,-18.8223684210526,-13.6608610153198,1.1318051815033
662,-20,-13.8617267608643,0.841611981391907,-9.64878048780488,-13.605185508728,0.848521292209625
663,-18,-13.9283933639526,0.813429951667786,-18.9612903225806,-13.6782598495483,-0.404498159885406
664,-19,-13.9400882720947,0.758081316947937,-13.3289473684211,-13.6669006347656,0.656848907470703
665,-8,-13.9134216308594,0.868880927562714,-10,-13.6269016265869,0.924427270889282
666,-12.9183673469388,-13.8793249130249,1.2302827835083,-7.83265306122449,-13.6074323654175,1.22738564014435
667,-14.6936936936937,-13.8538331985474,1.27899932861328,-18,-13.6024522781372,1.308424949646
668,-10,-13.8461446762085,1.11019170284271,-18,-13.6968784332275,1.19708967208862
669,-8.40828402366864,-13.8307094573975,1.14721858501434,-16,-13.7082262039185,0.115811109542847
670,-12.0683229813665,-13.8044986724854,1.2553516626358,-12.3167701863354,-13.6703386306763,0.384210348129272
671,-14.5584415584416,-13.8809490203857,1.19511497020721,-14.3506493506494,-13.6961603164673,0.824959576129913
672,-12.3448275862069,-13.9123373031616,1.02735233306885,-13.4252873563218,-13.7135419845581,0.246340334415436
673,-8,-13.854474067688,0.976399064064026,-16,-13.7267646789551,1.10911238193512
674,-20,-13.9211406707764,1.10192465782166,-6.8974358974359,-13.6927471160889,-0.0747802257537842
675,-16,-13.9151983261108,1.3829619884491,-14,-13.7246713638306,1.10693919658661
676,-16.7349397590361,-13.9334306716919,1.19520378112793,-18,-13.7632064819336,0.975033819675446
677,-16.78125,-13.8986396789551,1.29283773899078,-13.3125,-13.7628841400146,1.0760600566864
678,-18.5055762081784,-13.9309110641479,1.19079029560089,-13.2230483271375,-13.7323303222656,1.31000351905823
679,-16.3818181818182,-13.9055519104004,0.598356306552887,-12,-13.7208070755005,-0.22521984577179
680,-12,-13.9290628433228,1.40081429481506,-8.03529411764706,-13.7418308258057,1.05082952976227
681,-14.1885245901639,-13.9644565582275,1.47136247158051,-18.844262295082,-13.7783842086792,1.10822069644928
682,-17.2646239554318,-14.0110025405884,1.48415875434875,-11,-13.7143001556396,1.07942020893097
683,-18.9141274238227,-14.0570964813232,1.45878338813782,-14.6952908587258,-13.7722673416138,0.609838485717773
684,-16.1975308641975,-14.0748519897461,1.46024894714355,-14.9506172839506,-13.7830171585083,0.711143255233765
685,-13.8863636363636,-14.0944805145264,1.51241934299469,-12.2954545454545,-13.8163414001465,1.25128388404846
686,-8,-14.0087451934814,1.59934341907501,-10,-13.7738084793091,1.2734694480896
687,-14.9,-13.9880781173706,1.66787576675415,-4.9,-13.7264747619629,1.25670421123505
688,-8,-13.9876174926758,1.67715525627136,-8,-13.6823978424072,1.28727042675018
689,-20,-14.0006513595581,1.73984932899475,-16,-13.6756563186646,1.41592478752136
690,-20.9130434782609,-14.0171480178833,1.74668276309967,-8,-13.6281671524048,1.35709059238434
691,-19.6511627906977,-14.0814905166626,1.65312600135803,-14,-13.6148338317871,0.729961514472961
692,-13.8640226628895,-14.0939178466797,1.54444444179535,-21.6317280453258,-13.6790466308594,1.33585858345032
693,-16.1280487804878,-14.1081037521362,1.34129214286804,-14.3719512195122,-13.6681938171387,1.12379062175751
694,-12.2360515021459,-14.0963439941406,1.26426899433136,-16.6781115879828,-13.6460456848145,0.957319617271423
695,-18,-14.0963439941406,1.3944171667099,-13.2926829268293,-13.6146640777588,0.975895702838898
696,-18.1506849315068,-14.0706815719604,1.21480000019073,-12,-13.6145076751709,0.967946887016296
697,-16.2743142144638,-14.0919942855835,1.76439547538757,-18.2917705735661,-13.6625747680664,1.12070882320404
698,-14.3116883116883,-14.1074056625366,1.55222415924072,-14.6103896103896,-13.6503868103027,1.12430238723755
699,-22,-14.1670503616333,1.48199307918549,-13.6883116883117,-13.665940284729,1.11981844902039
700,-6.94207317073171,-14.1199970245361,1.45940566062927,-16.8170731707317,-13.738055229187,1.11868011951447
701,-13.7692307692308,-14.129319190979,1.54402685165405,-10,-13.6713886260986,-0.504365384578705
702,-10.0526315789474,-14.0831985473633,1.6027215719223,-8.35087719298246,-13.6464376449585,1.19259059429169
703,-15.3650793650794,-14.0631952285767,0.961430668830872,-6.30687830687831,-13.6628923416138,1.21140170097351
704,-16.9811320754717,-14.0477228164673,1.95356285572052,-18,-13.688157081604,1.17873561382294
705,-2.89333333333333,-13.9449234008789,1.73522853851318,-14.58,-13.6386890411377,1.18527436256409
706,-17.0552486187845,-13.9822311401367,1.63488757610321,-8.13259668508287,-13.6237668991089,1.03201544284821
707,-15.4888888888889,-13.9761381149292,1.28507685661316,-13.6603174603175,-13.5808029174805,0.902351498603821
708,-11.813829787234,-13.9465970993042,1.12803375720978,-16.9202127659574,-13.6219711303711,0.865210115909576
709,-17.0108695652174,-13.9489440917969,1.13000476360321,-9.78260869565217,-13.6056985855103,0.88805615901947
710,-15.2101910828025,-13.9525518417358,1.16823136806488,-9.3312101910828,-13.5966958999634,0.974740207195282
711,-12.9009900990099,-13.9793081283569,1.17580878734589,-22.1089108910891,-13.6896696090698,1.12533485889435
712,-16.8952879581152,-13.9586095809937,1.26210355758667,-14.6858638743456,-13.7229328155518,1.0664222240448
713,-18,-14.0062742233276,1.55587804317474,-14.0898876404494,-13.6929244995117,0.954542815685272
714,-10,-14.0023746490479,1.55254566669464,-6,-13.6262578964233,0.883474349975586
715,-12.5326086956522,-13.9765930175781,1.68882703781128,-18,-13.6966896057129,1.06602382659912
716,-10.419512195122,-13.9848489761353,1.75503778457642,-12.6780487804878,-13.6800012588501,0.957744479179382
717,-14,-14.0511560440063,1.77439260482788,-10,-13.7016792297363,0.482113927602768
718,0,-13.9704618453979,1.87367510795593,-6,-13.6083459854126,0.77077579498291
719,-10.0235294117647,-13.9736623764038,1.96025145053864,-14.3882352941176,-13.5976009368896,1.11261641979218
720,-16,-13.9966049194336,1.65725874900818,-16.7126436781609,-13.6229581832886,0.935528159141541
721,-8,-13.9966049194336,1.96168160438538,-14,-13.6629590988159,0.57690417766571
722,-6.5852534562212,-13.9498958587646,1.90078258514404,-12.7695852534562,-13.6547555923462,0.573922753334045
723,-16.9532374100719,-13.9637269973755,1.70673489570618,-18.5215827338129,-13.6515655517578,0.508213877677917
724,-24,-14.0130796432495,1.39521980285645,-22,-13.718186378479,0.138057515025139
725,-14.8217821782178,-13.986668586731,1.13087272644043,-10.3118811881188,-13.6903123855591,0.202275812625885
726,-5.5787037037037,-13.9438591003418,1.56930780410767,-12.9768518518519,-13.7101583480835,0.415361613035202
727,-14.6519337016575,-13.9605760574341,0.988395392894745,-13.5690607734807,-13.700779914856,0.424095630645752
728,-16.1806451612903,-13.9927492141724,1.19276607036591,-16,-13.700234413147,0.265160232782364
729,-12,-13.9669237136841,0.93183296918869,-12,-13.6977100372314,0.319770336151123
730,-14,-13.9687919616699,1.67863738536835,-11.253164556962,-13.7220783233643,0.429584950208664
731,-13.1315789473684,-13.9508981704712,0.635107815265656,-11.1973684210526,-13.6927795410156,0.583390653133392
732,-18,-14.0007066726685,1.61711168289185,-12,-13.7009019851685,0.871998965740204
733,-8.20555555555556,-13.9487438201904,1.67511713504791,-16.8722222222222,-13.7162561416626,1.04870164394379
734,-10,-13.9260349273682,1.73461496829987,-14,-13.7404232025146,1.14267766475677
735,-8,-13.8934907913208,1.97854733467102,-10,-13.7110347747803,1.24663281440735
736,-15.0314465408805,-13.8713817596436,1.97443032264709,-14,-13.7067842483521,1.30586886405945
737,-18.026706231454,-13.9164257049561,1.91614139080048,-16.8219584569733,-13.744553565979,1.07016253471375
738,-12,-13.9358072280884,1.76656639575958,-12,-13.7214546203613,0.918160557746887
739,-3.81220657276995,-13.8804950714111,1.75699186325073,-6.74178403755868,-13.6264657974243,1.01810419559479
740,-16.8858695652174,-13.8597326278687,1.87586915493011,-16,-13.6221485137939,1.10746955871582
741,-18.0949367088608,-13.9363765716553,1.87005639076233,-10.3481012658228,-13.6204786300659,1.2415999174118
742,-14.6927374301676,-13.9143295288086,1.6801666021347,-8,-13.5751810073853,1.31413757801056
743,-12.202380952381,-13.9156789779663,1.42891097068787,-16.8809523809524,-13.6210527420044,-0.0337064862251282
744,-17.374449339207,-13.9326143264771,1.52466297149658,-12,-13.5796365737915,1.35819447040558
745,-10,-13.852614402771,1.65340614318848,-16,-13.6547250747681,1.29451823234558
746,-8.92024539877301,-13.8092203140259,1.66094470024109,-10.8834355828221,-13.6461935043335,1.27595269680023
747,-8.96470588235294,-13.7532539367676,1.74733412265778,-18,-13.6504621505737,1.15524864196777
748,-9.49074074074074,-13.7323160171509,1.80021107196808,-12.8333333333333,-13.6026840209961,1.12853050231934
749,-16,-13.7323160171509,2.01537036895752,-17.3370786516854,-13.6115980148315,1.19525754451752
750,-10.5511811023622,-13.7059030532837,1.79408860206604,-8,-13.5620088577271,1.14011716842651
751,-20,-13.7440233230591,1.62168252468109,-11.5737704918033,-13.5001058578491,1.1109607219696
752,-11.4156378600823,-13.7401266098022,1.49818015098572,-20.5267489711934,-13.5569515228271,1.10380303859711
753,-20.8823529411765,-13.8040771484375,1.43479931354523,-12.8941176470588,-13.549578666687,1.15863144397736
754,-14,-13.7995796203613,1.28535974025726,-16.8311688311688,-13.5469026565552,1.24481630325317
755,-17.216957605985,-13.847695350647,0.372238665819168,-18.6583541147132,-13.5779571533203,1.13704252243042
756,-12.9133858267717,-13.8183250427246,1.02542722225189,-12,-13.5779571533203,1.00918197631836
757,-14.6931818181818,-13.8215103149414,1.23734796047211,-14.6931818181818,-13.5559129714966,0.980008840560913
758,-16.075,-13.8474760055542,1.44862186908722,-14.325,-13.5738687515259,1.06936025619507
759,-10.2247191011236,-13.8223066329956,1.43782639503479,-11.1123595505618,-13.5621042251587,1.12437236309052
760,-14,-13.7910184860229,1.39112949371338,-12.0967741935484,-13.5094156265259,1.10979402065277
761,-12,-13.7376852035522,1.44231045246124,-12.7100591715976,-13.5084533691406,1.103639960289
762,-18.172268907563,-13.7640981674194,1.46396005153656,-14.9831932773109,-13.4854249954224,1.22284746170044
763,-8,-13.6974315643311,1.56189274787903,-20,-13.5222673416138,0.672775864601135
764,-18.367816091954,-13.7061700820923,1.70839428901672,-11.4712643678161,-13.4815034866333,1.31058251857758
765,-17.0892857142857,-13.711220741272,1.76909589767456,-18.0535714285714,-13.5264549255371,1.30879986286163
766,-14.6129032258065,-13.7561264038086,1.91080927848816,-11.1290322580645,-13.5038948059082,-0.245357483625412
767,-14,-13.7459554672241,1.67699658870697,-13.3363636363636,-13.518105506897,1.30033266544342
768,-8.45454545454546,-13.8023176193237,1.7292093038559,-20.6761363636364,-13.535945892334,1.24646687507629
769,-6.25882352941176,-13.6973781585693,1.77609252929688,-4.10588235294118,-13.4550504684448,1.19499170780182
770,-9.77777777777778,-13.7092304229736,1.52003729343414,-14.65,-13.512716293335,1.17803537845612
771,-15.1569965870307,-13.7263050079346,1.57859706878662,-16.3617747440273,-13.5358381271362,-0.523191928863525
772,-20.0621118012422,-13.745325088501,1.66901409626007,-14,-13.5382013320923,1.198850274086
773,-18,-13.7525682449341,1.61901021003723,-10.5348837209302,-13.469274520874,1.25864446163177
774,-12.8993710691824,-13.757420539856,0.68520599603653,-14,-13.4426078796387,1.32095623016357
775,-10,-13.750563621521,1.63098037242889,-16,-13.4026069641113,1.40536105632782
776,-10.4082840236686,-13.6999530792236,0.507911443710327,-12.5562130177515,-13.3597736358643,-0.562381267547607
777,-15.6458923512748,-13.7242574691772,1.88366222381592,-18.9206798866856,-13.3792448043823,1.33163368701935
778,-6.23622047244094,-13.6463680267334,1.87599086761475,-14.2362204724409,-13.3824596405029,1.3446569442749
779,-14.6323529411765,-13.6905822753906,1.85122752189636,-12.4362745098039,-13.425368309021,1.56739556789398
780,-19,-13.7062826156616,1.79507672786713,-15.5921052631579,-13.458948135376,1.0803154706955
781,-16.6496815286624,-13.7639484405518,1.78414726257324,-18.2675159235669,-13.4873971939087,1.11940896511078
782,-0.132530120481928,-13.6774711608887,1.78276813030243,-16,-13.4715433120728,0.968997657299042
783,-20,-13.704137802124,1.83563339710236,-10.445,-13.4289693832397,1.02302122116089
784,-10,-13.6456384658813,1.86063206195831,-6,-13.3889694213867,1.06331777572632
785,-19.1714285714286,-13.6871194839478,2.01473116874695,-12.0857142857143,-13.3451223373413,0.578917920589447
786,-10.4615384615385,-13.6761770248413,1.50286209583282,-14.010989010989,-13.365270614624,-0.267880231142044
787,-13.457249070632,-13.6706132888794,1.39333605766296,-9.8550185873606,-13.3193035125732,1.47678327560425
788,-14.6580086580087,-13.6285676956177,1.96410989761353,-19.3419913419913,-13.363338470459,1.4029403924942
789,-14.5608465608466,-13.607608795166,1.83120453357697,-10.4021164021164,-13.3922309875488,1.36716556549072
790,-10.1801801801802,-13.6088104248047,1.76123750209808,-7.63063063063063,-13.3497686386108,1.4129239320755
791,-8.30092592592593,-13.6421451568604,1.87402963638306,-17.0277777777778,-13.3407258987427,1.43536102771759
792,-18,-13.6954784393311,1.89591598510742,-11.0285714285714,-13.3075828552246,-0.0127042680978775
793,-15.4385964912281,-13.7050695419312,1.82983469963074,-3.7719298245614,-13.277081489563,1.35724699497223
794,-10.6684782608696,-13.688681602478,1.86123657226562,-9.10869565217391,-13.2444725036621,1.42086148262024
795,-10,-13.674295425415,1.97065663337708,-12,-13.2346439361572,1.38136351108551
796,-14.9794871794872,-13.6769533157349,1.98930728435516,-14.4512820512821,-13.2109842300415,0.682800531387329
797,-12.4029126213592,-13.6529731750488,2.03295493125916,-8.32038834951456,-13.1731214523315,1.05810105800629
798,-8.9873417721519,-13.60622215271,1.39483261108398,-12.6582278481013,-13.1278762817383,1.3343653678894
799,-10.4818181818182,-13.6008262634277,1.53833627700806,-18,-13.174542427063,-0.437034547328949
800,-14.9050279329609,-13.6105499267578,2.00064778327942,-19.0837988826816,-13.2351026535034,0.367472171783447
801,-18,-13.6173324584961,2.00986194610596,-18.2954545454545,-13.2637386322021,0.886954188346863
802,-9.3764367816092,-13.5684843063354,1.48158967494965,-9.13218390804598,-13.2128028869629,1.77225422859192
803,-12.895652173913,-13.5611209869385,1.91202008724213,-15.2782608695652,-13.2127418518066,1.32150602340698
804,-18.5202312138728,-13.6045894622803,1.73436224460602,-14,-13.239408493042,1.0184680223465
805,-20.9673913043478,-13.6377038955688,1.62438201904297,-12.75,-13.2905530929565,0.788239419460297
806,-16.6542056074766,-13.6420650482178,0.850800275802612,-12.8411214953271,-13.3532629013062,0.735894739627838
807,-17.6077348066298,-13.699049949646,1.47710716724396,-12.2016574585635,-13.3236026763916,0.698759913444519
808,-20,-13.7657165527344,1.59971153736115,-14,-13.4036016464233,0.421752214431763
809,-12.6808510638298,-13.7286586761475,1.69869494438171,-12,-13.3852548599243,0.598898530006409
810,-8,-13.6855440139771,1.8227174282074,-10,-13.3981513977051,0.882898151874542
811,-11.9539473684211,-13.7538328170776,1.88817751407623,-16.0328947368421,-13.3795557022095,1.09900093078613
812,-4.58682634730539,-13.6510782241821,1.77378928661346,-24,-13.47523021698,1.0456041097641
813,-10.3221476510067,-13.599892616272,1.9037994146347,-16.5906040268456,-13.4594259262085,0.748130321502686
814,-16,-13.5798921585083,1.86924028396606,-16,-13.4772329330444,0.655864655971527
815,-6,-13.5665588378906,0.830115437507629,-16,-13.5172328948975,0.68174535036087
816,-5.32188841201717,-13.5159158706665,1.84522867202759,-13.7639484978541,-13.5567741394043,0.633775651454926
817,-10,-13.4846248626709,1.99642193317413,-4,-13.4634408950806,0.597085952758789
818,-16.9535864978903,-13.5309820175171,0.841668963432312,-7.64135021097047,-13.394383430481,0.771421372890472
819,-16.2146341463415,-13.5830240249634,2.03652095794678,-17.4878048780488,-13.4043016433716,0.867732286453247
820,-13.1169590643275,-13.5900144577026,1.62627637386322,-10.5555555555556,-13.392560005188,0.747336685657501
821,-16,-13.5996255874634,1.37955760955811,-10.2592592592593,-13.3652849197388,0.802764177322388
822,-9.02272727272727,-13.5774784088135,1.35500967502594,-18,-13.3957824707031,0.614828288555145
823,-12,-13.6041450500488,1.45540177822113,-14.131455399061,-13.3833255767822,0.344937652349472
824,-10,-13.5374784469604,1.67001950740814,-4,-13.3640098571777,0.547538459300995
825,-11.214953271028,-13.5055780410767,1.78566539287567,-15.0934579439252,-13.3712997436523,0.88302344083786
826,-14.0480349344978,-13.4876651763916,1.81621825695038,-18,-13.3712997436523,0.981917023658752
827,-15.1052631578947,-13.4764928817749,1.25098824501038,-12.0526315789474,-13.3629007339478,0.721452236175537
828,-16.7640449438202,-13.4648818969727,1.54155802726746,-16,-13.3814134597778,0.665991187095642
829,-20,-13.4890031814575,1.52217447757721,-12,-13.3814134597778,0.629392266273499
830,-8.71910112359551,-13.4671306610107,1.53692543506622,-13.3820224719101,-13.4170589447021,0.533031761646271
831,-12,-13.4525394439697,1.69956922531128,-6,-13.3314294815063,0.578353762626648
832,-14.7674418604651,-13.4358930587769,1.93756186962128,-7.77519379844961,-13.3099317550659,0.880610167980194
833,-12,-13.389799118042,1.94793570041656,-14.8341968911917,-13.3108577728271,0.966733038425446
834,-15.5457317073171,-13.3854541778564,1.7794132232666,-13.0274390243902,-13.2980365753174,0.732006371021271
835,-13.4612244897959,-13.3826189041138,1.79216575622559,-14.7020408163265,-13.3140802383423,0.484163910150528
836,-10,-13.3959522247314,1.83163344860077,-18,-13.367413520813,0.433113634586334
837,-15.4836795252226,-13.3998441696167,1.96749091148376,-16.2878338278932,-13.4433326721191,0.548966407775879
838,-6,-13.386510848999,2.01377034187317,-14,-13.4833316802979,0.611405491828918
839,-10.4856115107914,-13.3230810165405,2.04311943054199,-11.5035971223022,-13.4533557891846,0.598258018493652
840,-6,-13.2236604690552,1.90752291679382,-10,-13.4666891098022,0.740166485309601
841,-16,-13.1993198394775,1.77709352970123,-12.6691729323308,-13.4578170776367,0.972796678543091
842,-5.32044198895028,-13.1423616409302,1.75749623775482,-14.8895027624309,-13.4128694534302,1.0398097038269
843,-12.5399061032864,-13.1184406280518,1.75401628017426,-14.3521126760563,-13.4127378463745,0.909550487995148
844,-14,-13.1302003860474,1.16463112831116,-10.1806167400881,-13.369421005249,0.567040324211121
845,-10,-13.0768671035767,1.91304636001587,-6.23668639053254,-13.3223791122437,0.234402522444725
846,-10,-13.0225296020508,1.96162164211273,-12,-13.3223791122437,0.32837501168251
847,-14.5194805194805,-13.0108299255371,2.04864406585693,-10,-13.2671012878418,0.560221076011658
848,-19.1183431952663,-13.0428743362427,0.642346799373627,-14.8816568047337,-13.2689094543457,0.601890325546265
849,-6.82251082251082,-12.9416913986206,2.0300030708313,-12,-13.2576541900635,0.604434490203857
850,-10.2739726027397,-12.963903427124,1.92472970485687,-18,-13.2655401229858,0.521249115467072
851,-15.2173913043478,-12.9735584259033,1.84251809120178,-11.8442028985507,-13.2778348922729,0.303796589374542
852,-8.46052631578947,-12.962944984436,0.501052796840668,-22,-13.3688297271729,0.179266527295113
853,-6,-12.9005107879639,1.96021616458893,-16,-13.4334506988525,0.244509488344193
854,-16.9078341013825,-12.9000225067139,1.17509603500366,-20.1244239631336,-13.4476137161255,0.328275918960571
855,-10.3899721448468,-12.9499998092651,1.59484755992889,-16.0139275766017,-13.4571723937988,0.214614361524582
856,-11.4854368932039,-12.9128675460815,1.68397331237793,-20,-13.5362892150879,-0.0149034792557359
857,-16.3719512195122,-12.9187545776367,1.6872341632843,-14.75,-13.543553352356,-0.168447077274323
858,-12.75,-12.9249963760376,1.14103674888611,-16,-13.5374183654785,-0.124084904789925
859,-10.4921465968586,-12.8815383911133,1.54084944725037,-16.4921465968586,-13.5821485519409,0.09958366304636
860,-9.05851063829787,-12.8405275344849,1.97019529342651,-14,-13.6132736206055,0.228132247924805
861,-15.6712328767123,-12.8589954376221,0.869676828384399,-14,-13.55921459198,0.160523369908333
862,-14.2873563218391,-12.8416090011597,1.95601332187653,-10.8045977011494,-13.5333395004272,0.084885373711586
863,-4.23529411764706,-12.7498426437378,1.85099494457245,-11.1176470588235,-13.5135250091553,0.217408627271652
864,-16.7828571428571,-12.7950630187988,1.91838920116425,-14.56,-13.5705909729004,0.180493369698524
865,-16,-12.8181791305542,1.98287391662598,-8,-13.503924369812,0.186647474765778
866,-18,-12.8687162399292,0.732503771781921,-14.1806451612903,-13.5139417648315,0.253391087055206
867,-10,-12.8420495986938,2.11297345161438,-10,-13.5139417648315,0.360980927944183
868,-6.27215189873418,-12.8838624954224,2.11855173110962,-20.8544303797468,-13.6129713058472,0.437931507825851
869,-18.2216066481994,-12.9385175704956,2.0410430431366,-11.1662049861496,-13.5914907455444,0.142143726348877
870,-8.54634146341463,-12.8888254165649,1.95868623256683,-9.84390243902439,-13.5456991195679,-0.267328709363937
871,-18.3069306930693,-12.9575386047363,1.84637844562531,-22,-13.5990324020386,-0.278972059488297
872,-19.6095238095238,-13.0443668365479,1.69050133228302,-14.6984126984127,-13.611891746521,-0.21083627641201
873,-14.5833333333333,-13.0285673141479,1.72562301158905,-16,-13.5950813293457,-0.160813257098198
874,-14.241134751773,-12.9635095596313,1.85166192054749,-12.3333333333333,-13.5306367874146,-0.154024332761765
875,-17.0263157894737,-12.9782047271729,1.99161767959595,-14.1622807017544,-13.5563058853149,-0.0441848188638687
876,-8,-12.9943475723267,1.22297859191895,-16,-13.5764608383179,0.0195340253412724
877,-20.3488372093023,-13.0323276519775,0.846644401550293,-10,-13.5526666641235,0.0863141566514969
878,-16.5283018867925,-13.0346450805664,1.94225466251373,-19.8805031446541,-13.5785369873047,0.0849425867199898
879,-10,-13.0213117599487,1.90663945674896,-10,-13.565203666687,0.0298532526940107
880,-10,-12.9946451187134,1.99822211265564,-12,-13.5701818466187,0.135656207799911
881,-12.9317073170732,-12.993311882019,2.06721830368042,-12.5121951219512,-13.5789489746094,0.194519579410553
882,-15.2982456140351,-12.9752998352051,2.118319272995,-14.5321637426901,-13.5958299636841,0.121527478098869
883,-2,-12.9339294433594,2.18567299842834,-14,-13.576681137085,0.0335098616778851
884,-8.53588516746411,-12.9241695404053,2.11335754394531,-22,-13.6300144195557,-0.00164926936849952
885,-6,-12.9108362197876,2.19330835342407,-2,-13.576681137085,-0.0266757924109697
886,-20,-12.943959236145,2.15512609481812,-4,-13.5100145339966,0.195598304271698
887,-8.31333333333333,-12.8792028427124,1.27643895149231,-9.76,-13.4629364013672,0.64156174659729
888,-13.75,-12.8908700942993,1.99358010292053,-8.54166666666667,-13.4398794174194,0.576622068881989
889,-16,-12.9721221923828,1.95649993419647,-10.4375,-13.4645166397095,0.316014885902405
890,-15.2463768115942,-12.9611930847168,2.08537912368774,-13.4830917874396,-13.4477376937866,0.153425276279449
891,-10,-12.9072265625,2.16866040229797,-16,-13.4854164123535,0.186539858579636
892,-10.7717391304348,-12.881085395813,2.10126352310181,-10.0597826086957,-13.4991483688354,0.204098522663116
893,-4,-12.8264026641846,2.00732088088989,-14,-13.4799423217773,0.0584654323756695
894,-8,-12.7639074325562,2.15110945701599,-16,-13.5066089630127,0.0725071206688881
895,-20,-12.8305740356445,0.796564936637878,-6.07246376811594,-13.4404258728027,0.238035798072815
896,-20.3910891089109,-12.9070463180542,2.21220374107361,-18,-13.4878692626953,0.38562998175621
897,-18,-12.9672813415527,1.57945692539215,-16.189349112426,-13.4757986068726,0.180544435977936
898,-8,-12.9573431015015,2.17401123046875,-4,-13.4169092178345,-0.122271656990051
899,-9.89400921658986,-12.91663646698,1.54432535171509,-14,-13.3946628570557,0.0152346529066563
900,-19,-12.9729614257812,2.085453748703,-16.3475935828877,-13.4503126144409,0.204109042882919
901,-10,-12.9062948226929,2.07408881187439,-10,-13.4398212432861,0.13754503428936
902,-16.7464114832536,-12.9418334960938,1.62205600738525,-9.66985645933014,-13.3674411773682,0.15675051510334
903,-24,-12.9626178741455,1.70571208000183,-18.5670995670996,-13.4052619934082,0.147317722439766
904,-15.7260273972603,-12.9741239547729,2.01712036132812,-12.7260273972603,-13.3778944015503,-0.075161911547184
905,-6.15942028985507,-12.9004077911377,1.87186765670776,-22.3768115942029,-13.4026851654053,-0.194158062338829
906,-6,-12.8543186187744,1.85653245449066,-20,-13.456018447876,-0.731774926185608
907,-12,-12.8363637924194,2.08629655838013,-10,-13.424729347229,-1.0195779800415
908,-16.1187050359712,-12.8366556167603,1.66932368278503,-9.04676258992806,-13.3895406723022,-0.694677352905273
909,-11.2970297029703,-12.843804359436,1.57282495498657,-16.1980198019802,-13.4234457015991,-0.418073296546936
910,-16,-12.8571376800537,1.89282894134521,-12.9133858267717,-13.4288902282715,-0.211359798908234
911,-14,-12.8704710006714,1.46035516262054,-22,-13.4908218383789,-0.276556223630905
912,-16,-12.8559885025024,1.27414560317993,-14.5918367346939,-13.4882125854492,-0.458357214927673
913,-14.4258064516129,-12.8988285064697,1.35502076148987,-10,-13.4215459823608,-0.483827143907547
914,-10.455,-12.8460760116577,1.30895340442657,-13.945,-13.4380388259888,-0.435877323150635
915,-16,-12.8388147354126,1.04716205596924,-9.52112676056338,-13.3811559677124,-0.42811581492424
916,-14.9874213836478,-12.8413114547729,1.02743911743164,-24,-13.4669609069824,-0.395180642604828
917,-11.4494382022472,-12.8243064880371,1.15229618549347,-14.1629213483146,-13.4724721908569,-0.379254043102264
918,-4,-12.7946100234985,1.46162676811218,-8,-13.3879652023315,-0.307587951421738
919,-12.5454545454545,-12.8365211486816,1.8747341632843,-8.6,-13.4179267883301,-0.0495141483843327
920,-18.6903225806452,-12.8959379196167,1.88428628444672,-9.39354838709678,-13.3828830718994,-0.0018292332533747
921,-8,-12.8482246398926,1.70175719261169,-12,-13.3538045883179,-0.00841575674712658
922,-9.21904761904762,-12.7759370803833,1.79058265686035,-14,-13.3538045883179,0.136962562799454
923,-15.0887573964497,-12.7565288543701,1.75657021999359,-14.9289940828402,-13.3830986022949,0.160052508115768
924,-22,-12.8171997070312,1.26802718639374,-10,-13.3564319610596,0.0984286963939667
925,-11.2691218130312,-12.8256597518921,0.934863150119781,-17.3881019830028,-13.365686416626,-0.00776216667145491
926,-12,-12.8362722396851,0.918338119983673,-17.0404624277457,-13.3955812454224,-0.323776453733444
927,-13.0120481927711,-12.8187131881714,1.11679935455322,-10.578313253012,-13.3399648666382,-0.658866107463837
928,-4,-12.8038053512573,1.49688959121704,-10,-13.3117237091064,-0.485225081443787
929,-16.1882352941176,-12.8141784667969,1.79840052127838,-16.1882352941176,-13.3367366790771,-0.115566045045853
930,-14,-12.7808446884155,1.56225180625916,-4.58904109589041,-13.2633819580078,-0.0072414530441165
931,-15.5872576177285,-12.7737617492676,1.11172866821289,-20.7479224376731,-13.2799186706543,-0.58365660905838
932,-12,-12.8528776168823,1.0361008644104,-14,-13.2665853500366,-0.186372444033623
933,-6.8876404494382,-12.7654619216919,1.27603900432587,-10.4943820224719,-13.2669153213501,-0.26786482334137
934,-16,-12.8054618835449,1.49600958824158,-13.1907894736842,-13.3148536682129,-0.250258833169937
935,-15.7763157894737,-12.7828283309937,1.38182199001312,-13.3771929824561,-13.3234615325928,-0.160589709877968
936,-11.3571428571429,-12.7887992858887,1.02367556095123,-14,-13.3233890533447,-0.479514509439468
937,-14.9554140127389,-12.7987861633301,0.976489424705505,-14.8089171974522,-13.3564157485962,0.0766076743602753
938,-12.3385826771654,-12.7833242416382,0.947270452976227,-9.15748031496063,-13.2885189056396,0.240402936935425
939,-18,-12.8062515258789,0.998160898685455,-18,-13.3391714096069,0.385333597660065
940,-12.748502994012,-12.8233737945557,19.0334453582764,-15.1736526946108,-13.389458656311,-0.766079485416412
941,-14,-12.8613681793213,0.882405579090118,-16.9647058823529,-13.3890371322632,0.454754561185837
942,-14,-12.8347015380859,1.14489376544952,-10.7471264367816,-13.3871612548828,0.41488978266716
943,4,-12.7051105499268,1.40991592407227,-14,-13.4553489685059,0.27982684969902
944,-6.57205240174673,-12.6778011322021,1.69890463352203,-18.6899563318777,-13.5192232131958,0.217286705970764
945,-13.4658753709199,-12.70090675354,1.68071174621582,-16.6617210682493,-13.5503025054932,0.486544132232666
946,-14,-12.6943769454956,1.33205854892731,-12.6491228070175,-13.5382881164551,0.372591644525528
947,-12.3481012658228,-12.6940116882324,1.14877903461456,-13.1455696202532,-13.5704536437988,0.582845687866211
948,-20,-12.7674293518066,1.12280988693237,-8.86390532544379,-13.5451593399048,0.652346789836884
949,-8,-12.7508840560913,1.2276314496994,0,-13.4251594543457,0.777506530284882
950,-16.75,-12.76318359375,1.47480142116547,-7.775,-13.3497686386108,0.895586252212524
951,-14,-12.7365169525146,1.39972114562988,-14.2265193370166,-13.3226413726807,-0.722256243228912
952,-20.2785515320334,-12.8091974258423,0.99163830280304,-21,-13.4017610549927,-1.08153057098389
953,-8,-12.7765598297119,1.19675529003143,-14,-13.3932390213013,0.222584366798401
954,-10.4772727272727,-12.7229404449463,1.45129418373108,-16.4204545454545,-13.4093751907349,1.00899410247803
955,-18.0887372013652,-12.7037496566772,1.55517995357513,-13.7269624573379,-13.4158887863159,-0.441150993108749
956,-3.56521739130435,-12.6164894104004,1.43967652320862,-12.4510869565217,-13.4132881164551,0.824596285820007
957,-13.1936507936508,-12.587061882019,1.4462034702301,-6.85396825396825,-13.3776359558105,0.685671031475067
958,-16.6491228070175,-12.5647230148315,1.24887681007385,-12.7017543859649,-13.3689813613892,0.63199383020401
959,-15.0625,-12.5806007385254,1.10860574245453,-16.1458333333333,-13.3966207504272,-0.349509298801422
960,-18,-12.6472673416138,1.02389430999756,-11.8769230769231,-13.4091329574585,-0.815612435340881
961,-4,-12.5942411422729,1.27447509765625,-6,-13.3422470092773,0.631883978843689
962,-14.2366863905325,-12.6585731506348,1.65847134590149,-12,-13.2622470855713,0.928297638893127
963,-4,-12.6164255142212,1.86383461952209,4,-13.1249761581421,0.953294277191162
964,-8.65060240963856,-12.5674295425415,1.96215891838074,-22,-13.1649761199951,1.02467978000641
965,-12.7540983606557,-12.6124572753906,1.71862328052521,-13.2213114754098,-13.1464519500732,1.05270338058472
966,0,-12.5769777297974,1.85036516189575,-15.5738636363636,-13.1585178375244,0.889692783355713
967,-14.7272727272727,-12.6084928512573,1.72055566310883,-14.9909090909091,-13.2317914962769,-0.262719213962555
968,-14.1801801801802,-12.5900030136108,2.1754002571106,-14.7567567567568,-13.2792272567749,0.937567234039307
969,-14.6146341463415,-12.5793371200562,2.17926335334778,-8.77073170731707,-13.2211132049561,0.947106838226318
970,-12.7509293680297,-12.5768957138062,2.07851409912109,-16.271375464684,-13.2592191696167,0.861026585102081
971,-8.5695652173913,-12.5273599624634,2.0385148525238,-9.46521739130435,-13.2539253234863,-0.589860260486603
972,-12.5027624309392,-12.5505609512329,1.73583090305328,-14.9447513812155,-13.2335567474365,0.774211287498474
973,-3.47058823529412,-12.4936990737915,1.95782601833344,-9.36764705882353,-13.2017974853516,0.588012337684631
974,-13.1122994652406,-12.5144472122192,1.84544837474823,-15.7540106951872,-13.2801580429077,0.544181108474731
975,-12,-12.5196800231934,1.92678570747375,-10,-13.2462015151978,0.696400225162506
976,-12.8590604026846,-12.5117530822754,1.99996995925903,-12.5973154362416,-13.2101831436157,0.926946580410004
977,-15.7608695652174,-12.5161247253418,2.06344175338745,-14.5326086956522,-13.2267160415649,1.08951437473297
978,-8,-12.4576969146729,2.08084559440613,2,-13.1067161560059,1.1630984544754
979,-16,-12.4310302734375,2.05835700035095,-16,-13.1333827972412,0.72370183467865
980,-20,-12.506236076355,2.18356800079346,-14,-13.1375036239624,0.699320197105408
981,-16,-12.5329027175903,2.13366746902466,-14.3087557603687,-13.1928958892822,0.825924932956696
982,-18,-12.5544538497925,2.03882265090942,-16,-13.247727394104,0.742024660110474
983,-16,-12.5811204910278,1.93208229541779,-10,-13.2154998779297,0.49059471487999
984,-10.5386533665835,-12.547739982605,1.89748930931091,-20.4588528678304,-13.2650423049927,0.429509580135345
985,-7.66304347826087,-12.5090847015381,1.89839208126068,-15.0833333333333,-13.2675838470459,0.463896960020065
986,-14.5302325581395,-12.5392866134644,1.88103890419006,-13.093023255814,-13.2348709106445,0.715908825397491
987,-16.5562130177515,-12.5464372634888,0.811912417411804,-12,-13.2062845230103,-0.75804328918457
988,-18,-12.6264371871948,1.86952781677246,-14.6571428571429,-13.2106657028198,0.233145952224731
989,-10.9059405940594,-12.6292390823364,1.978835105896,-12.7029702970297,-13.2186622619629,0.169508218765259
990,-8,-12.6425724029541,2.00926470756531,-18,-13.2719955444336,-1.44677567481995
991,-16.3290043290043,-12.6447658538818,2.05753755569458,-16.1558441558442,-13.2952404022217,0.834308922290802
992,-9.15343915343915,-12.6703186035156,2.13281345367432,-17.6243386243386,-13.3134727478027,-0.543310761451721
993,-17.0285714285714,-12.7002429962158,2.15756297111511,-16.9857142857143,-13.3310298919678,-0.825080037117004
994,-18,-12.7269096374512,2.13219261169434,-15.3726708074534,-13.3656435012817,0.955437958240509
995,-18.7461139896373,-12.7852172851562,2.09913897514343,-16.6269430051813,-13.4349117279053,0.358105719089508
996,-8,-12.7718839645386,2.07412958145142,-10,-13.4215784072876,0.204342544078827
997,-10.9611650485437,-12.7481622695923,2.07594895362854,-10.9126213592233,-13.4276628494263,0.926678419113159
998,-16.1904761904762,-12.7286434173584,2.06739234924316,-12,-13.4084510803223,1.09625458717346
999,-15.3839662447257,-12.785719871521,0.927648663520813,-12.7848101265823,-13.4136838912964,-0.855164527893066
1000,-16,-12.8238945007324,1.99387156963348,-11.155462184874,-13.3680534362793,0.077297568321228
1001,-16,-12.8291101455688,1.93413770198822,-10.4672897196262,-13.3588733673096,1.12533605098724
1002,-6.36708860759494,-12.8151550292969,1.21755886077881,-17.3164556962025,-13.3276500701904,-1.00994634628296
1003,-16,-12.8818216323853,1.84528195858002,-18.9878048780488,-13.3475685119629,-1.02200496196747
1004,-7.28994082840237,-12.817702293396,1.82393789291382,-16,-13.3200721740723,0.873487830162048
1005,0,-12.7484350204468,1.93643915653229,-4,-13.2399797439575,0.0892245769500732
1006,-6,-12.7118663787842,2.17313718795776,-10,-13.1733131408691,1.08649611473083
1007,-9.03529411764706,-12.6629552841187,2.23313021659851,-11.1294117647059,-13.1491765975952,0.540342569351196
1008,-14,-12.6712884902954,2.21897625923157,-8,-13.0958433151245,0.592393040657043
1009,-20.8181818181818,-12.7401275634766,1.1263313293457,-8,-13.0392284393311,-1.54156804084778
1010,-6,-12.7197380065918,2.23768830299377,-12,-13.0258951187134,0.56123811006546
1011,-14,-12.7085962295532,2.30859541893005,0,-12.9325618743896,0.477285206317902
1012,-12,-12.6933469772339,1.89586353302002,-9.65217391304348,-12.9248790740967,-0.641944408416748
1013,-6.94736842105263,-12.7114286422729,2.35973906517029,-9.80263157894737,-12.916111946106,0.220004975795746
1014,-14,-12.6928749084473,0.998186826705933,-14.4470046082949,-12.915358543396,-1.2450670003891
1015,-10.2307692307692,-12.6544141769409,0.97633284330368,-14,-12.955358505249,-0.985125541687012
1016,-9.03947368421053,-12.5946769714355,0.636986255645752,-16.1710526315789,-12.9686279296875,-1.08582401275635
1017,-12.409756097561,-12.6107425689697,2.2841899394989,-16.6048780487805,-13.0126609802246,0.685762524604797
1018,-18.8993710691824,-12.6949234008789,2.26505565643311,-14.1446540880503,-12.9679288864136,0.90349268913269
1019,-13.0526315789474,-12.6604642868042,1.8453733921051,-9.73684210526316,-12.958399772644,1.10176217556
1020,-8.81818181818182,-12.6622762680054,1.8250070810318,-16.5909090909091,-13.0033798217773,-0.795827627182007
1021,-11.2408536585366,-12.6151685714722,2.08686661720276,-12.2439024390244,-12.9383392333984,1.02899122238159
1022,-14,-12.5777721405029,2.06386756896973,-20,-12.9736833572388,0.9239102602005
1023,-10.7222222222222,-12.5520315170288,2.05616283416748,-10.8333333333333,-12.9392395019531,0.830278158187866
1024,-4,-12.483757019043,2.03219819068909,-12,-12.9370164871216,0.826433181762695
1025,-6.43609022556391,-12.4131555557251,2.14075970649719,-9.15037593984962,-12.903603553772,0.881142258644104
1026,-6.13733905579399,-12.4007377624512,2.2023708820343,-6,-12.8369369506836,0.961247801780701
1027,-4,-12.2917451858521,2.20727682113647,-12,-12.8502702713013,1.01110661029816
1028,-12,-12.2615566253662,2.23806476593018,-14.4821428571429,-12.814281463623,1.15167033672333
1029,-10,-12.2615566253662,2.22925686836243,-12.6432748538012,-12.8319034576416,1.15976595878601
1030,-14.8409090909091,-12.2938299179077,2.2474148273468,-14.4772727272727,-12.8484182357788,0.085341215133667
1031,-4,-12.2342844009399,2.27025961875916,-2,-12.7783365249634,1.11801731586456
1032,-8.95108695652174,-12.191969871521,2.327068567276,-8.27717391304348,-12.7366361618042,1.31619310379028
1033,-12.8936170212766,-12.2645950317383,2.37962508201599,-12.5106382978723,-12.7267084121704,1.3479368686676
1034,-4,-12.2343559265137,2.39922213554382,-4,-12.6067085266113,1.1969678401947
1035,-13.0132158590308,-12.2811098098755,2.38119602203369,-18,-12.7133750915527,0.901096761226654
1036,-14,-12.2411098480225,2.24924349784851,-4.87709497206704,-12.7192220687866,1.14075350761414
1037,-20,-12.3190212249756,1.47842812538147,-7.27906976744186,-12.7026824951172,-0.512154698371887
1038,-20.2403100775194,-12.3622903823853,2.13057684898376,-11.5348837209302,-12.7226371765137,-0.113336205482483
1039,-18.3989361702128,-12.3782825469971,2.08165311813354,-16.7074468085106,-12.7644367218018,1.17694747447968
1040,-18,-12.3966407775879,1.99287843704224,-18,-12.7945499420166,1.1619029045105
1041,-10.3133333333333,-12.3987293243408,2.05953884124756,-8,-12.7412166595459,1.22259056568146
1042,-14.9775280898876,-12.4267683029175,2.15002799034119,-12.7640449438202,-12.7592449188232,0.376106739044189
1043,-16.5248226950355,-12.5102672576904,2.09046244621277,-9.70921985815603,-12.7306394577026,-0.0398303270339966
1044,-7.46875,-12.5067253112793,2.0905385017395,-11.65625,-12.701681137085,1.29238164424896
1045,-19.4694835680751,-12.5031881332397,2.20571064949036,-8.70892018779343,-12.7192573547363,0.953212201595306
1046,-8.06451612903226,-12.4210109710693,2.24122166633606,-11.4193548387097,-12.675386428833,1.30795097351074
1047,-2,-12.3143444061279,2.27410769462585,-12,-12.6474580764771,0.682224214076996
1048,-9.38961038961039,-12.3236083984375,2.38724946975708,-10.0519480519481,-12.6878042221069,0.759244680404663
1049,-8,-12.3109817504883,2.40588665008545,-6,-12.6344709396362,0.836112439632416
1050,-14.0490797546012,-12.2779750823975,2.37240767478943,-9.32515337423313,-12.5876550674438,1.21628844738007
1051,-16.4092827004219,-12.320704460144,1.44217026233673,-10.0548523206751,-12.5880212783813,-1.76515555381775
1052,-14,-12.3023958206177,2.27495002746582,-12.8976377952756,-12.6095390319824,1.2526992559433
1053,-21.3260869565217,-12.2845687866211,2.19537973403931,-18.5326086956522,-12.6093082427979,1.19503700733185
1054,-11.2597402597403,-12.2547941207886,2.01661109924316,-10.6493506493506,-12.5954637527466,0.751281678676605
1055,-14,-12.3070650100708,1.94328093528748,-12,-12.5262851715088,1.01852822303772
1056,-10.5953757225434,-12.3376998901367,2.01765275001526,-18.5202312138728,-12.5164203643799,0.440007328987122
1057,-14,-12.3510332107544,2.06951212882996,-10.8816568047337,-12.5222969055176,0.0531930923461914
1058,-10.4,-12.3129081726074,2.13546061515808,-18,-12.5819854736328,1.38116252422333
1059,-10,-12.3042621612549,1.9929404258728,-18,-12.5939989089966,-1.01759338378906
1060,-7.18633540372671,-12.2455034255981,2.15735983848572,-18.5590062111801,-12.6316366195679,1.27018666267395
1061,-8.75714285714286,-12.2105522155762,2.36659240722656,-18.6,-12.6089696884155,-0.843370914459229
1062,-10,-12.1705513000488,2.44447207450867,-8,-12.5650243759155,0.585225284099579
1063,-15.7247191011236,-12.1792106628418,2.38722610473633,-11,-12.5716915130615,1.24050807952881
1064,-4,-12.1361780166626,2.30690431594849,-10,-12.5453910827637,1.38617718219757
1065,-12.0509259259259,-12.1098499298096,2.28586101531982,-12,-12.5619173049927,1.46504831314087
1066,-19.6431924882629,-12.1408882141113,2.25657606124878,-11.6478873239437,-12.4795703887939,1.29097771644592
1067,-8,-12.1178922653198,2.2204327583313,-2,-12.3984832763672,1.17692673206329
1068,0,-12.0912256240845,2.37860608100891,-2,-12.3584833145142,1.35152292251587
1069,-11.2215189873418,-12.0824003219604,2.48218393325806,-14,-12.3944845199585,1.5298798084259
1070,-8.04803493449782,-12.0114517211914,2.36811757087708,-16.7467248908297,-12.4435052871704,1.54348635673523
1071,-11.8157894736842,-12.0368900299072,2.13354682922363,-11.9210526315789,-12.4429788589478,1.40603256225586
1072,-18.0687830687831,-12.0958890914917,1.9905903339386,-12.5449735449735,-12.4332790374756,1.25554025173187
1073,-2.9112426035503,-12.0147037506104,2.07543849945068,-12.6627218934911,-12.4181709289551,1.11710870265961
1074,-8.55621301775148,-11.9250793457031,0.94985020160675,-7.11834319526627,-12.3989591598511,0.292012155056
1075,-14,-11.9432849884033,2.29817366600037,-6,-12.3230381011963,1.13653719425201
1076,-12.3282051282051,-11.9454727172852,2.34957408905029,-16,-12.3161020278931,-0.582646369934082
1077,-13.6578947368421,-11.9497785568237,2.37544417381287,-10,-12.3122463226318,-0.101608574390411
1078,-12.0093457943925,-12.003173828125,2.35811638832092,-12.5327102803738,-12.3291311264038,0.965993523597717
1079,-18.1939058171745,-12.016544342041,2.25671005249023,-7.30193905817175,-12.2698888778687,1.02675139904022
1080,-12.3216374269006,-12.0053567886353,2.06547236442566,-12.327485380117,-12.321478843689,1.12535262107849
1081,-8,-11.9547758102417,2.04980397224426,-12.5393258426966,-12.2667541503906,1.11295962333679
1082,-12.8847736625514,-11.9606742858887,2.0778501033783,-14.7201646090535,-12.2715559005737,0.918890357017517
1083,-11.7727272727273,-11.9932403564453,2.03541350364685,-14.5454545454545,-12.29856300354,-0.613190054893494
1084,-7.03759398496241,-11.9334907531738,2.20103859901428,-13.1503759398496,-12.2982931137085,0.780153512954712
1085,-13.3121951219512,-11.9170637130737,2.28601384162903,-16.2975609756098,-12.3177633285522,0.846281468868256
1086,-13.5064935064935,-11.9313926696777,2.14043617248535,-10.6493506493506,-12.2954244613647,0.909136116504669
1087,-3.92018779342723,-11.8578243255615,2.00711011886597,-12.131455399061,-12.2775745391846,0.942048251628876
1088,-9.27439024390244,-11.8373966217041,2.14715504646301,-22,-12.3631916046143,1.09062600135803
1089,2,-11.704062461853,2.33754420280457,2,-12.2298583984375,1.02923762798309
1090,-11.0658682634731,-11.6928453445435,0.764589905738831,-12.0538922155689,-12.209059715271,-0.490659236907959
1091,-16.8173515981735,-11.7116279602051,2.47494792938232,-20.2739726027397,-12.2311220169067,1.38601326942444
1092,-10.6319018404908,-11.6891736984253,2.3973560333252,-12,-12.2394742965698,1.27515721321106
1093,-18,-11.8358402252197,2.12578344345093,-14.4581497797357,-12.2425289154053,1.39989984035492
1094,-12.3626062322946,-11.8744440078735,2.04196572303772,-16,-12.2245950698853,1.35772812366486
1095,-12.4684014869888,-11.8677940368652,2.04832148551941,-11.8513011152416,-12.1925258636475,1.23259544372559
1096,-8.38582677165354,-11.8303670883179,1.99296820163727,-8.55905511811024,-12.1652584075928,1.42227149009705
1097,-14.6261682242991,-11.8455533981323,1.99372410774231,-10.5046728971963,-12.1476526260376,1.47841835021973
1098,-10.8219584569733,-11.784366607666,1.8256368637085,-15.3649851632048,-12.190993309021,0.998152375221252
1099,-8.20952380952381,-11.7857637405396,2.126797914505,-10.2952380952381,-12.2596292495728,-0.530641973018646
1100,-14,-11.767430305481,2.16862869262695,-14,-12.3011283874512,0.386276304721832
1101,-10.6785714285714,-11.7452878952026,1.8376921415329,-6.44047619047619,-12.2492208480835,-1.21441721916199
1102,-7.63636363636364,-11.6610069274902,1.53475499153137,-16.8090909090909,-12.2212820053101,-1.09964179992676
1103,0,-11.6076736450195,2.30559253692627,-18,-12.2479486465454,1.08328783512115
1104,-14.0783410138249,-11.6316804885864,2.38874483108521,-15.5069124423963,-12.2418584823608,1.30449032783508
1105,-5.28985507246377,-11.5463542938232,2.37918376922607,-13.2463768115942,-12.238655090332,1.25022387504578
1106,-18,-11.6425867080688,0.961042523384094,-6.01098901098901,-12.1957206726074,-1.50370454788208
1107,-20,-11.6879625320435,1.58266699314117,-14.6628571428571,-12.2477807998657,1.18777012825012
1108,-8.63414634146342,-11.6345281600952,2.25575637817383,-10.6158536585366,-12.2338743209839,1.31568074226379
1109,-14.3347639484979,-11.6296758651733,2.2177209854126,-12.5064377682403,-12.2096118927002,1.29392921924591
1110,-14.5222929936306,-11.6064920425415,2.14675712585449,-16.0955414012739,-12.237735748291,1.301638007164
1111,-8.845,-11.6387920379639,2.23034715652466,-5.135,-12.231969833374,1.37298691272736
1112,-3.44155844155844,-11.5668249130249,2.36299920082092,-9.44155844155844,-12.2149124145508,1.38631975650787
1113,-10.0379746835443,-11.6070775985718,2.41187977790833,-5.12658227848101,-12.2757568359375,1.36768364906311
1114,-12,-11.6294078826904,2.3983907699585,-12.5531914893617,-12.2127771377563,1.38926982879639
1115,-11.4731182795699,-11.620867729187,2.26760792732239,-6.52688172043011,-12.1681489944458,1.47601187229156
1116,-8.66176470588235,-11.6786117553711,2.14719700813293,-15.0686274509804,-12.1647806167603,1.46602368354797
1117,-8,-11.6337633132935,2.31703758239746,-10,-12.1315069198608,1.40319192409515
1118,-18,-11.6592283248901,2.4929530620575,-8,-12.086462020874,1.49298310279846
1119,-11.2427184466019,-11.6367492675781,2.50945234298706,-14.378640776699,-12.1238489151001,1.56178402900696
1120,-8.85,-11.610743522644,2.35347890853882,-10.875,-12.087872505188,1.53594148159027
1121,-17.6511627906977,-11.6712875366211,2.09421157836914,-7.84496124031008,-12.0770711898804,1.38190650939941
1122,-13.2047781569966,-11.6759672164917,1.2101503610611,-6.66552901023891,-12.021876335144,-0.57022887468338
1123,-12.7798742138365,-11.7380294799805,2.18478798866272,-7.37735849056604,-12.0086088180542,1.26274788379669
1124,-18.5055248618785,-11.7739839553833,2.0262176990509,-11.2292817679558,-11.9784421920776,1.18705606460571
1125,-16.537037037037,-11.8042306900024,1.64277052879333,-18.5092592592593,-12.0351705551147,1.04815065860748
1126,-6.54285714285714,-11.7621231079102,2.13488268852234,-8.48163265306123,-12.0077333450317,1.41715550422668
1127,-4,-11.6837177276611,2.23168230056763,-4,-11.9375162124634,1.42610144615173
1128,-10,-11.6970510482788,2.44685864448547,4,-11.9241828918457,1.55523586273193
1129,-18,-11.7103843688965,2.43188381195068,-8.10599078341014,-11.8715562820435,-1.69984412193298
1130,-4,-11.6037178039551,2.57021284103394,-8,-11.8315563201904,1.5776709318161
1131,-14.179347826087,-11.5915794372559,2.49828338623047,-12.7119565217391,-11.8209104537964,1.55244553089142
1132,-12.9759036144578,-11.5580863952637,2.40987181663513,-11.1204819277108,-11.7883806228638,1.50440227985382
1133,-6.27461139896373,-11.4932498931885,2.29895067214966,-12,-11.8017139434814,1.50973212718964
1134,-18,-11.5429935455322,2.16391324996948,-12.1181818181818,-11.7461090087891,1.4119199514389
1135,-12,-11.5719060897827,2.08282995223999,-17.3597122302158,-11.761284828186,0.984821200370789
1136,-14.2982456140351,-11.5703582763672,2.12130236625671,-10.1228070175439,-11.7414836883545,0.640583455562592
1137,-9.13698630136986,-11.5208969116211,0.959211885929108,-16.4246575342466,-11.7709817886353,-1.18613839149475
1138,-14,-11.4942302703857,2.35419201850891,-18.0579710144928,-11.7936544418335,-0.583113312721252
1139,-11.4652173913043,-11.4979591369629,2.36633563041687,-18.7391304347826,-11.8338947296143,0.954590201377869
1140,-4.96052631578947,-11.4776954650879,2.48406553268433,-12.5614035087719,-11.7976379394531,1.11014080047607
1141,-11.03125,-11.4423780441284,2.52525472640991,-16,-11.7965984344482,1.04807281494141
1142,-6.90070921985816,-11.4273595809937,2.42896866798401,-22,-11.8257694244385,1.06816637516022
1143,2,-11.3005018234253,2.36679005622864,-10,-11.7791976928711,1.16611051559448
1144,-10,-11.2471685409546,2.54551553726196,-2,-11.6900463104248,1.43018472194672
1145,-6.55029585798817,-11.1658630371094,2.59473133087158,-22,-11.725866317749,1.63596189022064
1146,-9.62433862433862,-11.1766929626465,2.12790822982788,-12.4708994708995,-11.7423400878906,1.59888899326324
1147,-18,-11.2236185073853,1.71260726451874,-13.1724137931034,-11.7574043273926,-1.44542753696442
1148,-4,-11.1423473358154,2.43110823631287,0,-11.6774044036865,1.47818374633789
1149,-10.8603351955307,-11.1121912002563,2.36486864089966,-5.08379888268156,-11.6260643005371,0.64966893196106
1150,-10,-11.072190284729,2.29547595977783,-12,-11.6316947937012,1.57537448406219
1151,-2,-10.9788570404053,2.33116984367371,-6,-11.6019124984741,1.13592612743378
1152,-14.25,-11.0314092636108,2.37582445144653,-10.2321428571429,-11.5546846389771,1.51551425457001
1153,-20.6315789473684,-11.0622863769531,2.43208718299866,-12,-11.5080986022949,1.57802999019623
1154,-10.6903225806452,-11.0849561691284,1.81674683094025,-16.0774193548387,-11.5086145401001,-0.825312852859497
1155,-10.215873015873,-11.1530618667603,2.33327484130859,-13.0666666666667,-11.5690593719482,1.213343501091
1156,-11.2790697674419,-11.1882562637329,2.31235933303833,-9.62790697674419,-11.5665788650513,-0.777414798736572
1157,-7.42436974789916,-11.1775159835815,2.25552797317505,-15.5882352941176,-11.5963039398193,1.19228053092957
1158,-8,-11.1375160217285,2.41906213760376,-6,-11.5829706192017,1.51092994213104
1159,-10.4510869565217,-11.0684013366699,2.44064569473267,-8,-11.5829706192017,1.54119765758514
1160,-13.6067415730337,-11.1191148757935,2.42729306221008,-14.1685393258427,-11.5974283218384,-0.810751497745514
1161,-6,-11.0657815933228,2.40848803520203,-14,-11.6907615661621,1.63679206371307
1162,-6,-11.0257816314697,2.43919825553894,-6,-11.6664133071899,1.74922728538513
1163,-12.2878048780488,-11.0613832473755,2.43364238739014,-6.6780487804878,-11.645583152771,1.72360503673553
1164,-18,-11.0880498886108,2.0803165435791,-18,-11.6692695617676,1.60836052894592
1165,0,-11.0198450088501,2.36107516288757,-10,-11.6426029205322,1.54647302627563
1166,-16.8827930174564,-11.0721349716187,2.53432536125183,-17.4812967581047,-11.6513376235962,1.58519351482391
1167,-18,-11.1094026565552,2.46687364578247,-10.5652173913043,-11.6110744476318,-0.19857656955719
1168,-6,-11.0234069824219,2.35374283790588,-14,-11.6101093292236,1.45509493350983
1169,-10.281914893617,-11.0049352645874,2.43380951881409,-14.4946808510638,-11.641827583313,1.59597837924957
1170,-10.5625,-11.0165634155273,2.14952921867371,-10.1458333333333,-11.5988607406616,1.60256588459015
1171,-10.2368421052632,-11.0098695755005,0.697664856910706,-13.8026315789474,-11.6092529296875,-1.40827226638794
1172,-20,-11.0498695373535,2.32797789573669,-14.6237623762376,-11.573410987854,1.46099102497101
1173,-14.7540983606557,-11.0767488479614,2.23449301719666,-16.3524590163934,-11.6102046966553,1.40256357192993
1174,-12.4318181818182,-11.1329612731934,1.48904967308044,-10.3636363636364,-11.5992965698242,-0.0109903812408447
1175,4,-11.0633878707886,2.52895951271057,-12,-11.6182947158813,1.29512441158295
1176,-12.4031413612565,-11.1051597595215,0.828642964363098,-14,-11.6716279983521,-0.239758253097534
1177,-17.0975609756098,-11.1924772262573,2.46144509315491,-10.5121951219512,-11.6617088317871,1.59882569313049
1178,-18.2613636363636,-11.2342195510864,2.28917789459229,-14,-11.6584939956665,1.63347804546356
1179,-7.16883116883117,-11.2153444290161,2.24459958076477,-8.85714285714286,-11.6332540512085,1.58810603618622
1180,-14,-11.2097387313843,2.34491658210754,-18.2055555555556,-11.6581087112427,1.53150987625122
1181,-11.3733333333333,-11.2588949203491,2.22609281539917,-14.8666666666667,-11.7438859939575,1.60355603694916
1182,-16,-11.30588722229,2.48562622070312,-14.5436241610738,-11.785662651062,1.63182497024536
1183,-15.7540106951872,-11.3249559402466,2.35679841041565,-13.9197860962567,-11.7950572967529,1.59632813930511
1184,-16.4258064516129,-11.4077949523926,1.31480979919434,-14.1677419354839,-11.8628416061401,0.452960014343262
1185,-16,-11.4277067184448,1.08709645271301,-10.8863636363636,-11.8154182434082,-0.354193091392517
1186,-12,-11.4143733978271,0.771498620510101,-12,-11.8629035949707,-0.809122085571289
1187,-2.81609195402299,-11.2998142242432,2.66261768341064,-9.29885057471264,-11.876368522644,1.38548839092255
1188,-3.03529411764706,-11.1851139068604,2.78196978569031,-12.3882352941176,-11.8820571899414,0.903070032596588
1189,-16.7100591715976,-11.1738538742065,2.62155938148499,-14.6449704142012,-11.8683071136475,0.302386254072189
1190,-8,-11.1071872711182,2.19729161262512,-8,-11.8016405105591,0.372854858636856
1191,-10.3963963963964,-11.1077423095703,2.16316342353821,-6.90990990990991,-11.7943735122681,0.802562177181244
