EpisodeIndex,DQNEpisodeReward,DQNAverageReward,DQNEpisodeQ0,DDQNEpisodeReward,DDQNAverageReward,DDQNEpisodeQ0
1,-13.2671410827882,-13.2671413421631,0.997708201408386,-20.1014090463355,-20.1014099121094,0.997708201408386
2,-17.5822048725055,-15.4246730804443,0.9974485039711,-17.8019901608724,-18.9517002105713,0.997441411018372
3,-15.7146713051574,-15.5213394165039,0.905160248279572,-14.3259606937661,-17.4097881317139,0.905917048454285
4,-20.9995571944837,-16.8908939361572,0.997803390026093,-16.4986225642697,-17.1819953918457,0.997787356376648
5,-19.5718285809144,-17.4270801544189,0.995590567588806,-11.1041040270794,-15.9664182662964,0.995525658130646
6,-16.2451979067355,-17.2300987243652,0.997897386550903,-20.0463608474517,-16.6464080810547,0.997867941856384
7,-12.3255727752843,-16.5294532775879,0.540683269500732,-21.4995571944837,-17.3397159576416,0.545431911945343
8,-22.4997785972418,-17.2757434844971,0.99626237154007,-17.9988439670279,-17.4221057891846,0.99615877866745
9,-17.6182961390168,-17.3138046264648,0.998558342456818,-16.0603824285663,-17.2708034515381,0.998509347438812
10,-14.6337576994049,-17.0458011627197,0.997886478900909,-15.8234387132917,-17.1260662078857,0.997824311256409
11,-17.9988439670279,-17.1324405670166,0.997840404510498,-20.9992867725442,-17.478178024292,0.997776925563812
12,-12.8126684964133,-16.7724609375,0.369524419307709,-13.1612871543499,-17.1184368133545,0.367046892642975
13,-21.4995571944837,-17.1360816955566,0.997932076454163,-20.7354062510875,-17.3966655731201,0.997866690158844
14,-15.9665700102691,-17.052547454834,0.481127709150314,-16.3745836119983,-17.323657989502,0.47839567065239
15,-16.8064314621381,-17.0361385345459,0.729863286018372,-14.9074295715751,-17.162576675415,0.727880239486694
16,-18.2488439670279,-17.1119327545166,0.997835457324982,-17.1142783204612,-17.1595592498779,0.997750699520111
17,-22.7497785972418,-17.4435710906982,0.997651398181915,-17.4649456619431,-17.1775226593018,0.99755585193634
18,-7.49768793405576,-16.8910217285156,0.997868657112122,-24,-17.5565490722656,0.997776329517365
19,-17.7364061560826,-16.9355144500732,0.988837242126465,-15.5474004488958,-17.4508056640625,0.98818027973175
20,-13.0335062852,-16.7404136657715,0.996758639812469,-19.2921928533984,-17.5428733825684,0.996596872806549
21,-13.3360841708636,-16.5783042907715,0.997476756572723,-9.36728228039268,-17.1535606384277,0.99738734960556
22,-16.4980218482275,-16.5746536254883,0.997912704944611,-17.9988439670279,-17.1919822692871,0.9978306889534
23,-20.9995571944837,-16.7670421600342,0.997820615768433,-16.4986225642697,-17.1618347167969,0.997737765312195
24,-16.9220919520248,-16.7735023498535,0.975667417049408,-17.5603388787633,-17.1784381866455,0.973821878433228
25,-12.748671583451,-16.6125087738037,0.997784793376923,-15.853281055634,-17.1254348754883,0.997704684734344
26,-19.4993357917255,-16.7235412597656,0.991824448108673,-14.5911081134027,-17.0279579162598,0.991638243198395
27,-22.7497785972418,-16.9467353820801,0.997853934764862,-20.2493357917255,-17.1472682952881,0.997811913490295
28,-15.403865801089,-16.8916339874268,0.908937811851501,-17.4674550003211,-17.1587047576904,0.908183455467224
29,-18.1384408500913,-16.9346256256104,0.90653383731842,-12.1068696399057,-16.9845027923584,0.906459271907806
30,-16.9986225642697,-16.9367599487305,0.997297704219818,-16.3911581795794,-16.9647254943848,0.997297346591949
31,-11.2297233829145,-16.7526626586914,0.898303508758545,-16.2979935098463,-16.9432182312012,0.901354134082794
32,-17.9991143889674,-16.7916126251221,0.997945487499237,-17.9991143889674,-16.9762153625488,0.997922480106354
33,-20.0541257224025,-16.8904762268066,0.915863990783691,-12.9353963015944,-16.8537673950195,0.913643419742584
34,-17.9988439670279,-16.9230766296387,0.998041391372681,-14.998671583451,-16.7992057800293,0.998051285743713
35,-20.7349940876876,-17.0319900512695,0.998312711715698,-15.9163196951832,-16.7739791870117,0.99834132194519
36,-16.5740866222903,-17.0192680358887,0.946091055870056,-15.1076479537388,-16.7276935577393,0.945878624916077
37,-14.3120576802113,-16.9461002349854,0.997987985610962,-17.31505401269,-16.7435665130615,0.997999727725983
38,-11.2340333454196,-16.7957820892334,0.996892035007477,-15.8274370475119,-16.7194576263428,0.996921479701996
39,-24,-16.9805068969727,0.994797050952911,-17.4910332086997,-16.7392425537109,0.994665145874023
40,-14.9981307395721,-16.9309482574463,0.998052954673767,-17.9991143889674,-16.7707386016846,0.998075366020203
41,-15.1065082006045,-16.8864498138428,0.998153269290924,-11.1295666200673,-16.6331481933594,0.998172879219055
42,-12.0990499146971,-16.7724628448486,0.523517966270447,-18.8027545951443,-16.6848068237305,0.530844330787659
43,-15.5586381984912,-16.744234085083,0.997776806354523,-12.4473056846219,-16.5862598419189,0.997831761837006
44,-19.4993357917255,-16.8068504333496,0.997957706451416,-17.9991143889674,-16.6183700561523,0.997992873191833
45,-11.2339657010981,-16.6830081939697,0.998580694198608,-17.2417614477909,-16.6322231292725,0.998609304428101
46,-16.4986225642697,-16.6790008544922,0.98490035533905,-19.4993357917255,-16.6945514678955,0.984709680080414
47,-24,-16.8347663879395,0.998063147068024,-17.9988439670279,-16.7223014831543,0.998106956481934
48,-18.7873306759085,-16.8754444122314,0.998391568660736,-18.6498459958072,-16.7624588012695,0.998403131961823
49,-19.6030054703457,-16.9311065673828,0.985107362270355,-16.0206661131053,-16.7473201751709,0.985943555831909
50,-13.7369856363974,-16.8672256469727,0.997821569442749,-15.1418084528943,-16.7152099609375,0.997853696346283
51,-17.9991143889674,-16.8894214630127,0.998327434062958,-17.9991143889674,-16.740385055542,0.998323619365692
52,-16.2486225642697,-16.8770980834961,0.998116731643677,-15.1708623156517,-16.7102031707764,0.998131453990936
53,-19.9992867725442,-16.9360065460205,0.988024413585663,-17.2861514260044,-16.7210693359375,0.987546503543854
54,-13.8024200326241,-16.8779773712158,0.991872131824493,-16.0769030387578,-16.7091407775879,0.991995096206665
55,-17.555649731926,-16.8902969360352,0.997329473495483,-14.5210349063675,-16.6693572998047,0.997354030609131
56,-14.3291098229289,-16.8445625305176,0.999997854232788,-16.7263683049204,-16.6703758239746,0.999998092651367
57,-12.1716994873466,-16.7625827789307,0.998363673686981,-16.5760374658904,-16.6687202453613,0.99838399887085
58,-17.8241864327813,-16.7808856964111,0.702753722667694,-20.2427078794152,-16.7303409576416,0.714719891548157
59,-17.2689444695404,-16.7891578674316,0.873741447925568,-16.4975300235298,-16.7263946533203,0.875242173671722
60,-12.6772430120225,-16.7206268310547,0.997450649738312,-21.8969214543847,-16.8125686645508,0.997510075569153
61,-15.9863274823025,-16.708589553833,1,-20.229065391205,-16.8685779571533,1
62,-22.7497785972418,-16.8060283660889,0.998585343360901,-20.6805916772423,-16.930061340332,0.998629450798035
63,-14.5721716533148,-16.7705707550049,0.994956314563751,-11.9450734538056,-16.8509349822998,0.995284497737885
64,-18.8184847278957,-16.8025684356689,0.953648269176483,-17.8519512684,-16.8665771484375,0.957399249076843
65,-13.5747052605774,-16.752908706665,0.994160950183868,-6.87250709245733,-16.7128219604492,0.994287431240082
66,-18.3882034826933,-16.7776851654053,0.997825264930725,-14.0968758393789,-16.6731853485107,0.99788361787796
67,-11.5108966970189,-16.6990756988525,0.997817993164062,-14.7304884387054,-16.6441879272461,0.997869610786438
68,-16.2964337908387,-16.6931571960449,0.9178386926651,-11.5170926360826,-16.568790435791,0.920223772525787
69,-20.9995571944837,-16.7555675506592,0.997600257396698,-13.4979093368139,-16.5242862701416,0.997654914855957
70,-18.1540976964874,-16.7755470275879,0.997741103172302,-11.1526712415758,-16.4475479125977,0.997783005237579
71,-20.9995571944837,-16.8350391387939,0.998015284538269,-11.9976879340558,-16.3848762512207,0.998047351837158
72,-17.9295159719057,-16.8502426147461,0.99792093038559,-11.8945271359685,-16.322509765625,0.997948110103607
73,-6.69608307984319,-16.7111434936523,0.997041046619415,-12.267642934694,-16.2669620513916,0.997101724147797
74,-18.9982432509856,-16.7420501708984,0.99770325422287,-21.4995571944837,-16.3376731872559,0.99775618314743
75,-15.4670257852097,-16.7250499725342,0.997779905796051,-21.4995571944837,-16.4064979553223,0.99783992767334
76,-12.8193379082425,-16.6736602783203,0.998352289199829,-12.7105901968871,-16.3578681945801,0.998403966426849
77,-13.1836755949048,-16.6283340454102,0.930928707122803,-11.5527980067798,-16.2954635620117,0.934946238994598
78,-14.998671583451,-16.6074409484863,0.998351693153381,-20.9995571944837,-16.3557739257812,0.998416543006897
79,-16.6517574441472,-16.608003616333,0.998582720756531,-21.4995571944837,-16.4208850860596,0.998708128929138
80,-16.3345084077607,-16.6045837402344,0.937191605567932,-15.201646034537,-16.4056434631348,0.939765512943268
81,-12.5165848957188,-16.5541133880615,0.983876526355743,-18.0156833452662,-16.4255218505859,0.98529851436615
82,-20.1515672447349,-16.5979843139648,0.996190547943115,-17.9473364293394,-16.4440803527832,0.996383309364319
83,-18.9982432509856,-16.6269054412842,0.962688744068146,-10.7592707267289,-16.3755874633789,0.964843809604645
84,-11.5760486112124,-16.5667762756348,0.997749507427216,-18.2491143889674,-16.397891998291,0.997820615768433
85,-17.8128278552176,-16.5814361572266,0.997285604476929,-15.7901138082977,-16.3907432556152,0.997495591640472
86,-19.499065369786,-16.6153602600098,0.997820734977722,-14.9952994282287,-16.3745136260986,0.997847557067871
87,-14.3552476345406,-16.5893821716309,0.993316113948822,-19.022157368489,-16.4049472808838,0.993228256702423
88,-16.3711306635204,-16.5869007110596,0.997083485126495,-13.6781097437569,-16.3739624023438,0.996992588043213
89,-16.9332229160991,-16.5907936096191,0.982130825519562,-18.2491143889674,-16.3950309753418,0.982214152812958
90,-11.1710363573732,-16.5305728912354,0.998028934001923,-8.76851610404029,-16.3102912902832,0.998050093650818
91,-7.68994436087067,-16.4334239959717,0.998570680618286,-20.5924143373408,-16.357349395752,0.998550236225128
92,-19.4993357917255,-16.4667491912842,0.994226932525635,-19.4993357917255,-16.3915004730225,0.994866967201233
93,-14.5801413215827,-16.4464645385742,0.442640483379364,-22.7497785972418,-16.4598693847656,0.458252191543579
94,-17.5351478440128,-16.4580459594727,0.981562316417694,-13.9316122549914,-16.4329738616943,0.982695341110229
95,-14.5141092899334,-16.4375839233398,0.99747496843338,-18.0148225173892,-16.4496231079102,0.997509360313416
96,-12.4843166544693,-16.3964023590088,0.915209472179413,-11.7874039778172,-16.4010601043701,0.919342041015625
97,-21.4995571944837,-16.4490127563477,0.802061438560486,-18.5725065234328,-16.4234447479248,0.822318494319916
98,-20.2493357917255,-16.4877910614014,0.933573126792908,-13.5117804590066,-16.3937339782715,0.927850604057312
99,-14.8514108399068,-16.4712619781494,0.990187048912048,-12.934696744038,-16.358793258667,0.990794003009796
100,-17.6718164118806,-16.483268737793,0.998470842838287,-11.622161747324,-16.3114261627197,0.998476326465607
101,-17.5741034825988,-16.494068145752,0.760743081569672,-16.6668854389902,-16.3149471282959,0.776356756687164
102,-18.0946396591288,-16.5097599029541,0.994668126106262,-15.4477389946522,-16.3064460754395,0.99536395072937
103,-15.5433530720949,-16.5003776550293,0.397422224283218,-17.969500400779,-16.3225917816162,0.404393672943115
104,-19.4370498659101,-16.5286140441895,0.997760653495789,-13.7752625225178,-16.2980976104736,0.997789621353149
105,-12.0362799493903,-16.4858303070068,0.981328964233398,-8.96030097087461,-16.228214263916,0.982572078704834
106,-14.242531550708,-16.4646663665771,0.871574401855469,-6.50224360136129,-16.1364593505859,0.885515034198761
107,-11.2775896116272,-16.4161891937256,0.997746288776398,-12.8355727255234,-16.1056098937988,0.997778117656708
108,-11.7606642033772,-16.3730812072754,0.997841119766235,-16.7149204074688,-16.1112518310547,0.997876048088074
109,-9.77501777054886,-16.3125495910645,0.967544257640839,-13.5960121225026,-16.0881767272949,0.967911899089813
110,-18.2076636117653,-16.329776763916,0.993184506893158,-17.3783776457844,-16.0999050140381,0.993753254413605
111,-20.0669003679154,-16.3634452819824,0.997787237167358,-13.7424354216336,-16.0786666870117,0.997808635234833
112,-22.7497785972418,-16.420467376709,0.99751091003418,-19.1752328701594,-16.1063137054443,0.997631072998047
113,-19.0600500774398,-16.443826675415,0.986417412757874,-11.7843858691653,-16.0680675506592,0.986798346042633
114,-19.499065369786,-16.4706268310547,0.997328758239746,-17.9991143889674,-16.0850086212158,0.997408449649811
115,-17.1368389398656,-16.4764194488525,0.997576296329498,-3.59566821046495,-15.9764032363892,0.99757581949234
116,-21.4995571944837,-16.5197219848633,0.997788548469543,-16.6394388908003,-15.9821195602417,0.997817277908325
117,-17.2805857917255,-16.5262260437012,0.997638583183289,-12.4387267309364,-15.9518346786499,0.997883498668671
118,-16.7270708401318,-16.5279273986816,0.977168440818787,-9.67059355185685,-15.8986043930054,0.977928519248962
119,-19.7948788319106,-16.5553817749023,0.989958465099335,-18.9988439670279,-15.9246559143066,0.990741014480591
120,-20.5161187086793,-16.5883865356445,0.997062504291534,-12.4615563182129,-15.8957967758179,0.997383534908295
121,-20.1054469187945,-16.6174545288086,0.995160639286041,-21.4935129330814,-15.9420595169067,0.995227098464966
122,-18.3915376265879,-16.6319961547852,0.970472276210785,-19.8891950294249,-15.9744129180908,0.974340736865997
123,-16.4986225642697,-16.6309108734131,0.996840238571167,-19.4993357917255,-16.0030708312988,0.996818423271179
124,-18.2491143889674,-16.6439609527588,0.992956876754761,-19.3278014692928,-16.0298824310303,0.993505239486694
125,-14.9551954700484,-16.6304531097412,0.79706734418869,-2.2970496662334,-15.9200201034546,0.784965932369232
126,-19.2903938478701,-16.6515617370605,0.961370229721069,-12.6668936296404,-15.8942022323608,0.95981627702713
127,-14.1782342147552,-16.6320858001709,0.985733151435852,-9.1435894239564,-15.8410472869873,0.98720246553421
128,-16.9108176862209,-16.6342639923096,0.997589588165283,-16.4659171377596,-15.845929145813,0.997655510902405
129,-8.85528287076462,-16.5739631652832,0.995844662189484,-18.3442725005863,-15.8652954101562,0.996267735958099
130,-20.249065369786,-16.6022338867188,0.997768998146057,-17.0455624763991,-15.8743743896484,0.997832596302032
131,-17.2352908479053,-16.6070652008057,0.9961878657341,-21.0634490092269,-15.9139862060547,0.996400952339172
132,-19.4993357917255,-16.6289768218994,0.972399771213531,-19.4993357917255,-15.9411468505859,0.973078012466431
133,-14.9981307395721,-16.6167144775391,0.99759441614151,-14.998671583451,-15.9340620040894,0.997636198997498
134,-16.9986225642697,-16.6195640563965,0.99798309803009,-21.1385345781031,-15.972900390625,0.99804013967514
135,-16.769846677055,-16.620677947998,0.993932545185089,-18.0160520583441,-15.9880352020264,0.994149684906006
136,-15.1600040973203,-16.6099376678467,0.995665609836578,-12.9108938056733,-15.9654092788696,0.996229588985443
137,-17.9988439670279,-16.6200752258301,0.997954130172729,-11.9979583559952,-15.9364490509033,0.998006522655487
138,-20.2801127500392,-16.6465969085693,0.998206734657288,-17.69378023617,-15.9491834640503,0.998258054256439
139,-18.8404662853928,-16.6623802185059,0.994465053081512,-15.8172962071492,-15.9482355117798,0.994738757610321
140,-12.0426247839684,-16.6293830871582,0.997491002082825,-11.9168789457453,-15.9194402694702,0.997491717338562
141,-8.59697470659995,-16.5724143981934,0.998681247234344,-12.6564640729054,-15.8962993621826,0.998837292194366
142,-14.1055589804547,-16.5550422668457,0.991968333721161,-19.3545566992658,-15.9206523895264,0.992387652397156
143,-13.576730655181,-16.5342140197754,0.997721254825592,-17.9138927537508,-15.9345903396606,0.997791528701782
144,-22.7497785972418,-16.5773792266846,0.993425369262695,-15.2754416587756,-15.9300127029419,0.993652939796448
145,-11.9976879340558,-16.5457935333252,0.997970759868622,-17.9991143889674,-15.9442834854126,0.997981548309326
146,-9.93178225033677,-16.5004920959473,0.696652054786682,-12.611803080029,-15.9214582443237,0.671126484870911
147,-17.4405907935149,-16.5068874359131,0.997007429599762,-16.6162849442679,-15.9261846542358,0.997082769870758
148,-16.4986225642697,-16.5068302154541,0.997975409030914,-19.4993357917255,-15.9503269195557,0.998033225536346
149,-11.3663879601914,-16.4723320007324,0.55383688211441,-10.6315756668584,-15.9146308898926,0.519895374774933
150,-16.3167435682987,-16.4712963104248,0.350785702466965,-1.63715967971505,-15.8194484710693,0.379374325275421
151,-13.6832915538168,-16.4740695953369,0.681433081626892,-19.1718096593213,-15.8132514953613,0.712695360183716
152,-16.1432136651868,-16.4644756317139,0.993739366531372,-12.5081554750551,-15.7779588699341,0.994098901748657
153,-9.46490603648388,-16.4228115081787,0.997598826885223,-20.3832205608203,-15.818341255188,0.997667491436005
154,-17.6715281820708,-16.4006233215332,0.882029056549072,-20.1719709875871,-15.842830657959,0.870061278343201
155,-13.9059968113458,-16.3628520965576,0.998508155345917,-12.9893301446791,-15.8553991317749,0.99860942363739
156,-7.29872353878215,-16.3032073974609,0.99720287322998,-17.4710661892501,-15.838231086731,0.997294485569
157,-14.480559066159,-16.3175754547119,0.998598992824554,-20.249065369786,-15.8298921585083,0.998615622520447
158,-18.7898556694014,-16.2928409576416,0.994134962558746,-6.20739484901207,-15.7512826919556,0.994225203990936
159,-19.4993357917255,-16.3053817749023,0.997138857841492,-19.4993357917255,-15.774209022522,0.997134208679199
160,-14.6969305732763,-16.3058032989502,0.95823210477829,-21.7387491854771,-15.813645362854,0.963463723659515
161,-13.3469832200074,-16.2747917175293,0.911447942256927,-6.84593969844887,-15.7192907333374,0.925195634365082
162,-18.1414926544706,-16.3103179931641,0.99406635761261,-6.17409539288936,-15.6727085113525,0.994432747364044
163,-17.9189828559168,-16.2864456176758,0.914840817451477,-20.2493357917255,-15.6694679260254,0.925616800785065
164,-17.2636529723423,-16.295093536377,0.9980109333992,-19.2350186111088,-15.6885366439819,0.998079895973206
165,-9.87489208752052,-16.2488822937012,0.998327553272247,-18.2488439670279,-15.7108135223389,0.998418211936951
166,-12.8981826815718,-16.2132110595703,0.99767929315567,-12.5993328689071,-15.6807126998901,0.997837007045746
167,-18.8679993861956,-16.1873340606689,0.998326480388641,-13.721903465659,-15.6557598114014,0.998396813869476
168,-18.2488439670279,-16.2590065002441,0.997462391853333,-18.7563753113065,-15.6208028793335,0.997613668441772
169,-16.538026267916,-16.2510185241699,0.927559435367584,-11.3408844690316,-15.5927591323853,0.951426029205322
170,-20.5677390126655,-16.3012466430664,0.997836887836456,-15.5362799493903,-15.5677194595337,0.998021602630615
171,-11.9618758817684,-16.292085647583,0.991196155548096,-18.5944261945283,-15.6292333602905,0.991942167282104
172,-12.2153813976241,-16.2635345458984,0.360568583011627,-10.6638510950745,-15.5803337097168,0.346392095088959
173,-15.1130732683077,-16.224292755127,0.992920339107513,-11.0661616265995,-15.5441179275513,0.993761003017426
174,-13.7079838953001,-16.2028636932373,0.995207250118256,-17.9399744606951,-15.5466470718384,0.995965242385864
175,-13.8358020514492,-16.210111618042,0.997676193714142,-20.249065369786,-15.5759534835815,0.997844338417053
176,-20.9995571944837,-16.2201118469238,0.996258616447449,-19.4993357917255,-15.6086750030518,0.996538162231445
177,-14.5066080913875,-16.1651573181152,0.993684589862823,-17.8551558975456,-15.5927133560181,0.994511723518372
178,-17.2586080598534,-16.1775226593018,0.987724304199219,-18.6311923318099,-15.6004724502563,0.988586127758026
179,-10.3932950126096,-16.1258888244629,0.9974684715271,-10.683458525309,-15.5909833908081,0.997684955596924
180,-16.8463015941465,-16.1248741149902,0.998194754123688,-17.8086578256238,-15.6004333496094,0.998321115970612
181,-14.445470664271,-16.146312713623,0.994678497314453,-14.559351309209,-15.5888414382935,0.995078325271606
182,-9.06407518069288,-16.0867462158203,0.997712850570679,-14.7519689670279,-15.5671939849854,0.997875571250916
183,-15.1503119937578,-16.0540523529053,0.94015234708786,-16.7027072033386,-15.5923099517822,0.943859398365021
184,-20.9995571944837,-16.0740585327148,0.997898697853088,-16.4986225642697,-15.6023092269897,0.998033344745636
185,-21.0744539219172,-16.0763206481934,0.997344791889191,-6.11214407792592,-15.5369482040405,0.99758505821228
186,-13.4321198631297,-16.0553741455078,0.995981812477112,-15.1931380036168,-15.5375175476074,0.996359765529633
187,-15.36937491392,-16.0624237060547,0.978839755058289,-14.9381601976561,-15.521671295166,0.98265278339386
188,-13.6281645108282,-16.0783843994141,0.987151503562927,-14.0028299940832,-15.5095081329346,0.989148437976837
189,-11.3211395891296,-15.9938592910767,0.997464895248413,-19.3928706795206,-15.5221872329712,0.997659683227539
190,-16.8527055491884,-16.0062217712402,0.595439374446869,-14.8784568184134,-15.5013837814331,0.619587540626526
191,-6.00078084299391,-15.945517539978,0.686324417591095,-17.3252328559168,-15.5426874160767,0.58104419708252
192,-21.4995571944837,-16.008186340332,0.997607707977295,-12.92697517799,-15.5035152435303,0.997752964496613
193,-17.3671235369204,-16.0202445983887,0.997825682163239,-9.37798552932066,-15.4830532073975,0.997951567173004
194,-14.998671583451,-15.9902391433716,0.997723042964935,-16.4986225642697,-15.4730501174927,0.997850656509399
195,-19.9302800860499,-16.0482139587402,0.998111367225647,-16.2461023407746,-15.4664125442505,0.998310208320618
196,-18.749065369786,-16.0632171630859,0.997487425804138,-20.2493357917255,-15.4714126586914,0.997657775878906
197,-12.174954852671,-15.9843835830688,0.997747361660004,-20.1821590753614,-15.4859685897827,0.997890770435333
198,-13.8494717711027,-15.9514646530151,0.981823205947876,-11.9986225642697,-15.4416275024414,0.983388423919678
199,-15.2831539808229,-15.9226655960083,0.99567323923111,-17.0041648940179,-15.4481840133667,0.995992362499237
200,-18.2491143889674,-15.9527454376221,0.987198650836945,-16.1334540249439,-15.454794883728,0.988340854644775
201,-14.9981307395721,-15.9327392578125,0.983612775802612,-14.9981307395721,-15.4347887039185,0.986745655536652
202,-14.7094193019987,-15.9224786758423,0.995311737060547,-20.1706098260626,-15.4681186676025,0.996259093284607
203,-12.7021441174985,-15.8738317489624,0.311972439289093,-19.4625464940667,-15.482626914978,0.329874843358994
204,-13.5511703349704,-15.8721561431885,0.996726512908936,-24,-15.5354471206665,0.99695360660553
205,-16.8379799939886,-15.8673715591431,0.999986410140991,-17.0703505103483,-15.5524435043335,0.999988436698914
206,-15.7839326666748,-15.8770704269409,0.991579413414001,-15.3555855400616,-15.5433053970337,0.99332857131958
207,-15.1447263195425,-15.8968915939331,0.448516666889191,-12.7640261615116,-15.5178918838501,0.529092073440552
208,-0.420067835920629,-15.7808647155762,0.918077409267426,-8.3599212333843,-15.4386739730835,0.936549067497253
209,-11.5806907937676,-15.7429428100586,0.938316524028778,-17.4723539008027,-15.4451723098755,0.952160656452179
210,-19.4993357917255,-15.7884225845337,0.822991967201233,-16.4010751732811,-15.4085330963135,0.799741804599762
211,-16.4983521423302,-15.7918357849121,0.998219311237335,-19.4993357917255,-15.4036684036255,0.998308181762695
212,-16.7269622508695,-15.7516841888428,0.98645544052124,-16.5769354006405,-15.3763122558594,0.987051248550415
213,-21.4995571944837,-15.7978658676147,0.398539662361145,-16.0755456411928,-15.403847694397,0.39358189702034
214,-19.4993357917255,-15.8024053573608,0.996592819690704,-13.7473086207717,-15.376482963562,0.996816575527191
215,-10.6542711293118,-15.7829341888428,0.99781334400177,-16.0534124949467,-15.4376888275146,0.997940480709076
216,-19.3027065782424,-15.7890319824219,0.997287631034851,-20.2493357917255,-15.4787044525146,0.997451722621918
217,-6.9476548243702,-15.7586097717285,0.998126804828644,-8.59764686962232,-15.437819480896,0.998215079307556
218,-11.3138168243905,-15.7253923416138,0.994149804115295,-14.8591346005759,-15.4600992202759,0.995251536369324
219,-13.1196917466597,-15.6728601455688,0.989752650260925,-12.3851936143417,-15.4526824951172,0.990154325962067
220,-16.0770180716869,-15.6590137481689,0.995344340801239,-13.0778287740812,-15.4655160903931,0.99546754360199
221,-14.7655307768301,-15.61745262146,0.998184978961945,-11.1634834627407,-15.4599542617798,0.998347043991089
222,-16.4986225642697,-15.6079130172729,0.998091638088226,-17.9982432509856,-15.5006465911865,0.998233079910278
223,-11.997357639953,-15.6432552337646,0.997605443000793,-13.4975790427112,-15.508846282959,0.997783362865448
224,-16.1411845477408,-15.6242094039917,0.998124063014984,-15.3521497521518,-15.4678630828857,0.998288929462433
225,-21.4995571944837,-15.6644258499146,0.438253372907639,-18.2482432509856,-15.4461879730225,0.489733576774597
226,-11.292974651248,-15.6542501449585,0.994463622570038,-14.3061688077922,-15.4568243026733,0.99493020772934
227,-19.0108763934081,-15.693097114563,0.855929911136627,-18.8533960784475,-15.5054950714111,0.840718865394592
228,-22.4997785972418,-15.7431058883667,0.992704570293427,-19.4993357917255,-15.4954929351807,0.993375957012177
229,-11.0017771735132,-15.7054395675659,0.9902503490448,-14.2408585891144,-15.4471015930176,0.992804229259491
230,-9.39517747380471,-15.6591777801514,0.990011513233185,-21.5060547478695,-15.4891309738159,0.990812361240387
231,-14.9984011615116,-15.6757230758667,0.99782806634903,-14.9975300235298,-15.4690103530884,0.998033463954926
232,-13.6363929862092,-15.632287979126,0.689576148986816,-13.9447263195425,-15.442325592041,0.80229663848877
233,-9.90355595951343,-15.5716571807861,0.996913909912109,-12.9629692325435,-15.4570169448853,0.997117638587952
234,-19.4919814369079,-15.6244287490845,0.997976720333099,-11.0993599452863,-15.4093523025513,0.998176693916321
235,-7.47355785065377,-15.5555009841919,0.992788851261139,-20.5754957610366,-15.4412546157837,0.993025898933411
236,-11.9614512028925,-15.5052509307861,0.998632729053497,-20.6375880825146,-15.4788703918457,0.998791992664337
237,-11.9970872180135,-15.4895296096802,0.998090803623199,-16.4988929862092,-15.4620494842529,0.998266935348511
238,-20.249065369786,-15.5153827667236,0.997735619544983,-16.496796307299,-15.4808397293091,0.997984886169434
239,-14.9978004454693,-15.5024785995483,0.993964016437531,-17.9991143889674,-15.479172706604,0.993944942951202
240,-20.060979627342,-15.5617446899414,0.997748911380768,-19.2491143889674,-15.5490446090698,0.997972905635834
241,-9.87152667989693,-15.5762891769409,0.994640946388245,-17.2835973302566,-15.5269861221313,0.995463073253632
242,-8.99604369645497,-15.5062675476074,0.99793267250061,-14.998671583451,-15.4969806671143,0.998121440410614
243,-17.2493357917255,-15.5240621566772,0.998031198978424,-13.0986068970822,-15.4326400756836,0.998191297054291
244,-17.960220145467,-15.5268964767456,0.997942268848419,-15.901954210699,-15.4457750320435,0.998119533061981
245,-13.6439910254249,-15.5210952758789,0.99332469701767,-9.15089953246583,-15.386682510376,0.99502170085907
246,-22.7497785972418,-15.5895309448242,0.997931003570557,-14.0153721188824,-15.401535987854,0.998131692409515
247,-21.4992867725442,-15.5895299911499,0.998070180416107,-8.35715411772776,-15.3334341049194,0.998250544071198
248,-17.9988439670279,-15.5745267868042,0.998791873455048,-16.4988929862092,-15.353346824646,0.998902559280396
249,-19.4993357917255,-15.6055126190186,0.998030245304108,-17.9991143889674,-15.3871097564697,0.998254954814911
250,-10.8463940444677,-15.5600099563599,0.996766090393066,-15.4447807137588,-15.4125947952271,0.997229278087616
251,-14.998671583451,-15.5428400039673,0.997350335121155,-16.4986225642697,-15.411473274231,0.997740268707275
252,-19.499065369786,-15.5522022247314,0.99777489900589,-17.9991143889674,-15.4284811019897,0.998015284538269
253,-17.4430179895328,-15.564866065979,0.997193157672882,-16.4993357917255,-15.41868019104,0.99768054485321
254,-11.8800695225329,-15.5144872665405,0.957181215286255,-14.325394217813,-15.4223470687866,0.961669445037842
255,-10.4977369532371,-15.5042304992676,0.998023629188538,-16.4986225642697,-15.4726037979126,0.998255789279938
256,-16.4988929862092,-15.5192737579346,0.432244449853897,-20.9995571944837,-15.5692510604858,0.398153960704803
257,-16.4116170233493,-15.5535011291504,0.997730195522308,-12.1066049889878,-15.5643930435181,0.997970879077911
258,-11.0404120690475,-15.5486974716187,0.989113330841064,-12.4641888248303,-15.5360546112061,0.991703629493713
259,-15.5916458200837,-15.5874757766724,0.996966898441315,-19.499065369786,-15.5754089355469,0.997405827045441
260,-22.7497785972418,-15.6177558898926,0.972256302833557,-10.7183612523506,-15.5310087203979,0.978437900543213
261,-18.2491143889674,-15.605637550354,0.897737562656403,-21.4995571944837,-15.5827226638794,0.901542842388153
262,-18.4611004976079,-15.5770454406738,0.997531294822693,-14.5633284466227,-15.5519762039185,0.99779486656189
263,-13.2517672183578,-15.5383253097534,0.997262001037598,-13.7156036963452,-15.5648498535156,0.997679531574249
264,-19.1138429087694,-15.5357570648193,0.997457563877106,-8.84197364834147,-15.5038022994995,0.997707009315491
265,-16.4204490175848,-15.5309801101685,0.982043623924255,-9.97979162052925,-15.5463638305664,0.986663460731506
266,-13.4975790427112,-15.4776334762573,0.997801601886749,-16.4983521423302,-15.5454235076904,0.998075485229492
267,-6.96647904509469,-15.4088735580444,0.996770620346069,-18.69378023617,-15.5871238708496,0.997316300868988
268,-19.499065369786,-15.4273538589478,0.996080815792084,-17.9991143889674,-15.6426477432251,0.996810138225555
269,-12.3866065760033,-15.3779640197754,0.99808406829834,-14.1271457743133,-15.6101713180542,0.998331248760223
270,-11.0572814703919,-15.314905166626,0.992689907550812,-21.9573075547708,-15.6734752655029,0.993917524814606
271,-13.4965749045408,-15.2708463668823,0.995339393615723,-19.4993357917255,-15.6601810455322,0.995692074298859
272,-15.4722512562528,-15.2513847351074,0.975914418697357,-12.4812531024413,-15.6107940673828,0.984345972537994
273,-13.1593858691653,-15.2291240692139,0.983198463916779,-21.9997785972418,-15.6274642944336,0.986971318721771
274,-6.86977355642688,-15.1532621383667,0.997192084789276,-17.1312349458459,-15.6128206253052,0.997714638710022
275,-16.113014002867,-15.1609802246094,0.981259882450104,-12.1078390555079,-15.6782255172729,0.983521699905396
276,-22.7497785972418,-15.184042930603,0.997754514217377,-16.6045350239384,-15.7044763565063,0.998038113117218
277,-9.01630640100516,-15.1496305465698,0.967475652694702,-14.4072900504004,-15.7395668029785,0.974626660346985
278,-16.9481193293467,-15.1498794555664,0.997981786727905,-18.9048624712353,-15.7558269500732,0.998192727565765
279,-8.5663234838603,-15.1479520797729,0.997777760028839,-16.9714732430027,-15.7466745376587,0.997990250587463
280,-15.4332379488851,-15.1158466339111,0.989556133747101,-17.0119349017879,-15.7464513778687,0.991854190826416
281,-17.9988439670279,-15.1209354400635,0.99834668636322,-19.499065369786,-15.7360219955444,0.99846088886261
282,5.40096301409849,-14.9549350738525,0.998148202896118,-6.11313932171875,-15.6467809677124,0.998337984085083
283,-7.49514844962923,-14.9049158096313,0.997116208076477,-14.998671583451,-15.6467809677124,0.997271358966827
284,-16.2901300996113,-14.9001922607422,0.99807345867157,-17.95272263639,-15.6255416870117,0.998197138309479
285,-15.5767618386682,-14.8922367095947,0.987892806529999,-22.7497785972418,-15.6570997238159,0.989284694194794
286,-16.7757101336482,-14.9030075073242,0.995849609375,-13.2423427849948,-15.6593103408813,0.995893597602844
287,-17.9988439670279,-14.9030075073242,0.996562302112579,-5.99593118504141,-15.6192951202393,0.996813833713531
288,-8.83230249233684,-14.8266897201538,0.98773580789566,-11.5196777572562,-15.5781345367432,0.990167617797852
289,-13.4981797587534,-14.7910737991333,0.998091757297516,-13.4965749045408,-15.5626630783081,0.998201131820679
290,-16.6644036451657,-14.8218860626221,0.985437333583832,-13.0699529644612,-15.570351600647,0.986367881298065
291,-16.7101115726617,-14.8759746551514,0.993157804012299,-12.3786828516524,-15.5684995651245,0.9943807721138
292,-15.9988439670279,-14.888596534729,0.915411949157715,-18.2131912134123,-15.5608882904053,0.91924774646759
293,-9.35062911052634,-14.8604230880737,0.999046623706818,-12.2437696226667,-15.5230894088745,0.99909782409668
294,-11.2137036526148,-14.7835159301758,0.993829667568207,-18.1052076778465,-15.5419549942017,0.994196057319641
295,-8.16930944023575,-14.7579917907715,0.998171806335449,-19.932890527817,-15.5548458099365,0.998297154903412
296,-11.2838940444677,-14.7670068740845,0.379263937473297,-16.420834077269,-15.5802392959595,0.428084462881088
297,-12.3026326901986,-14.7327537536621,0.998203039169312,-19.7609640385901,-15.6012029647827,0.998325407505035
298,-16.2483521423302,-14.7310838699341,0.997664093971252,-7.56441072587948,-15.5216369628906,0.997764825820923
299,-17.8849995734352,-14.7745447158813,0.77791041135788,-10.2472569967518,-15.5190753936768,0.775055587291718
300,-16.2049905471848,-14.7737989425659,0.998080611228943,-12.4737404956696,-15.5913181304932,0.998176455497742
301,-17.9988439670279,-14.8025684356689,0.996313869953156,-16.4988929862092,-15.5734996795654,0.996757566928864
302,-19.4993357917255,-14.8249416351318,0.995643138885498,-17.9991143889674,-15.6101055145264,0.996150374412537
303,-19.0641893482109,-14.88893699646,0.779179096221924,-15.95386488753,-15.5805759429932,0.741572141647339
304,-11.0426537204766,-14.844744682312,0.99834930896759,-15.9779570256181,-15.5526170730591,0.998412251472473
305,-19.3433071944837,-14.8809928894043,0.997225284576416,-18.9628774583922,-15.5924415588379,0.997448205947876
306,-20.4400333849599,-14.968602180481,0.53933197259903,-13.998671583451,-15.5692901611328,0.518988609313965
307,-17.2414823885842,-14.9870080947876,0.998281717300415,-21.4995571944837,-15.5776271820068,0.998351097106934
308,-18.4298469738341,-14.9846076965332,0.998102724552155,-11.6318367621625,-15.613790512085,0.998182415962219
309,-12.1886559492296,-14.9358711242676,0.998023986816406,-15.2250344432184,-15.5852966308594,0.998104453086853
310,-9.61298870189328,-14.9019775390625,0.997223973274231,-15.1192290168979,-15.5411653518677,0.997407019138336
311,-19.499065369786,-14.9429912567139,0.998025059700012,-16.4986225642697,-15.6055154800415,0.998111248016357
312,-13.9174855782818,-14.914831161499,0.994568943977356,-18.6686906304352,-15.6888132095337,0.994675159454346
313,-17.3539040794635,-14.9110641479492,0.994556903839111,-5.91688090300012,-15.5932636260986,0.995195925235748
314,-16.535103250965,-14.9062080383301,0.468111991882324,-20.4577117009214,-15.601414680481,0.454911887645721
315,-19.9964191191699,-14.9736852645874,0.997506082057953,-16.5827963973356,-15.5903072357178,0.997621476650238
316,-12.6288620852278,-14.971887588501,0.998983323574066,-7.29771499966686,-15.5549640655518,0.999037623405457
317,-16.4983521423302,-14.956090927124,0.995335280895233,-11.9948566227124,-15.5434503555298,0.995575428009033
318,-14.5131850608539,-14.9311866760254,0.998055696487427,-18.0259884467091,-15.5385808944702,0.99813050031662
319,-12.3082555917927,-14.9029865264893,0.997991561889648,-16.4672256999824,-15.5727567672729,0.998055577278137
320,-15.0833757448299,-14.8664245605469,0.997299373149872,-17.6939419751743,-15.587140083313,0.997238636016846
321,-16.7842549512164,-14.8985738754272,0.998087048530579,-22.7497785972418,-15.6148433685303,0.998155057430267
322,-12.5079308427103,-14.9005241394043,0.998065054416656,-12.9062965316244,-15.6297931671143,0.998130619525909
323,-9.49980985661388,-14.8631019592285,0.998044013977051,-14.905321128863,-15.6553869247437,0.998117566108704
324,-16.4983521423302,-14.8817052841187,0.997282743453979,-14.9981307395721,-15.6357746124268,0.997310757637024
325,-10.495861677085,-14.8594398498535,0.995995879173279,-17.9988439670279,-15.620774269104,0.996170341968536
326,-12.9166390268649,-14.8055553436279,0.997589945793152,-12.1028817125045,-15.5714645385742,0.997699439525604
327,-19.3440327614225,-14.8378047943115,0.996900677680969,-17.4874803306642,-15.5690135955811,0.996817708015442
328,-13.4981797587534,-14.8127346038818,0.997805535793304,-11.9976879340558,-15.5247898101807,0.997858345508575
329,-16.4986225642697,-14.8534355163574,0.997610211372375,-11.997357639953,-15.5335502624512,0.997697770595551
330,-11.6543136067973,-14.8188219070435,0.983052611351013,-15.171071974536,-15.515965461731,0.984053552150726
331,-15.4549967419085,-14.8255529403687,0.998018980026245,-14.2042835144527,-15.5135984420776,0.998077750205994
332,-13.3995497471207,-14.854455947876,0.984593868255615,-15.728156305135,-15.5201053619385,0.985040307044983
333,-14.541701109885,-14.850399017334,0.978347063064575,-16.0554949994731,-15.5157909393311,0.978335559368134
334,-14.3866822657623,-14.8063116073608,0.98623925447464,-4.21393346092668,-15.4338932037354,0.986260831356049
335,-18.9988439670279,-14.7924737930298,0.997866332530975,-14.8563370308352,-15.4921875,0.997957468032837
336,-15.4836276633036,-14.8061504364014,0.998097002506256,-12.1271058779922,-15.4717483520508,0.998178601264954
337,-20.428389311272,-14.8398780822754,0.997986316680908,-12.3667438782582,-15.4546060562134,0.998055815696716
338,-16.9160024583922,-14.8617973327637,0.998061835765839,-9.83075084544961,-15.4267921447754,0.998127996921539
339,-17.9988439670279,-14.9063148498535,0.998401701450348,-17.9988439670279,-15.417498588562,0.998428761959076
340,-20.2493357917255,-14.9289579391479,0.994794905185699,-12.0265997909717,-15.3984861373901,0.994713604450226
341,-14.7546612116127,-14.9873180389404,0.935538113117218,-12.3209801183562,-15.3651237487793,0.937102615833282
342,-13.0937205724161,-14.9312791824341,0.932785987854004,-13.0937205724161,-15.3662338256836,0.934099614620209
343,-8.39839148546424,-14.8714876174927,1,-14.3271209675851,-15.3992280960083,1
344,-17.4210827571585,-14.887638092041,0.997382342815399,-12.2490506548118,-15.3708982467651,0.997505605220795
345,-7.46830530206542,-14.8045587539673,0.529901206493378,-14.0826691250589,-15.3564758300781,0.561935365200043
346,-17.5635772777936,-14.7966556549072,0.982948899269104,-17.6967042127782,-15.3394584655762,0.984645187854767
347,-9.39328465385829,-14.7781105041504,0.992568016052246,-6.37485299317159,-15.2474088668823,0.993098199367523
348,-13.0719305732763,-14.7729263305664,0.998131215572357,-8.77759152345928,-15.2259359359741,0.998181581497192
349,-10.9037800235298,-14.7437305450439,0.997272431850433,-8.6202609610428,-15.1700439453125,0.997309446334839
350,-16.4986225642697,-14.7320604324341,0.997454702854156,-19.499065369786,-15.1924800872803,0.997548520565033
351,-16.9344502955423,-14.7449703216553,0.996028661727905,-18.6178778051707,-15.2166109085083,0.996098756790161
352,-11.997357639953,-14.7268896102905,0.997310042381287,-16.4986225642697,-15.1921300888062,0.997306942939758
353,-18.1091265894778,-14.7629365921021,0.996745705604553,-10.845034064527,-15.1346807479858,0.99673318862915
354,-20.249065369786,-14.8075876235962,0.998014092445374,-20.7495571944837,-15.1130113601685,0.99805873632431
355,-13.4973086207717,-14.7853155136108,0.998213410377502,-14.998671583451,-15.0992012023926,0.998212575912476
356,-12.8230660471189,-14.7655782699585,0.805981457233429,-17.3306506706183,-15.1123685836792,0.824042558670044
357,-11.9976879340558,-14.7445983886719,0.983422875404358,-16.4970177100572,-15.1372537612915,0.983984529972076
358,-17.6461241933155,-14.8594388961792,0.997843980789185,-15.9402908595556,-15.1877908706665,0.997887313365936
359,-16.4984011615116,-14.8922233581543,0.998082160949707,-15.9273644880092,-15.1774921417236,0.998117685317993
360,-14.6202932050727,-14.8596954345703,0.998821079730988,-16.9720873619403,-15.1812992095947,0.998810648918152
361,-19.051640527817,-14.8767175674438,0.997794985771179,-8.9200547587534,-15.1107702255249,0.997828543186188
362,-12.2077525062743,-14.8465900421143,0.998273730278015,-13.2719273974045,-15.0887365341187,0.998302340507507
363,-9.83998184086579,-14.7688608169556,0.992703676223755,-13.4367946072805,-15.0711441040039,0.992823243141174
364,-18.9991143889674,-14.7655258178711,0.999998688697815,-17.7600799220841,-15.0978975296021,0.999998688697815
365,-16.631345793926,-14.8053731918335,0.896129071712494,-10.2481797587534,-15.0591955184937,0.898619174957275
366,-19.4993357917255,-14.8066825866699,0.997804224491119,-13.4984501806929,-15.0141897201538,0.997786521911621
367,-15.1981193293467,-14.8616857528687,0.603801250457764,-10.4865479468989,-15.026780128479,0.595219373703003
368,-9.53200722767274,-14.8498077392578,0.988864183425903,-8.42378702421475,-14.9838781356812,0.989101827144623
369,-16.497751426288,-14.8723278045654,0.997948586940765,-16.4980218482275,-15.0112972259521,0.998003900051117
370,-14.9283801656964,-14.864670753479,0.997830927371979,-16.4499449251506,-15.0337772369385,0.997911155223846
371,-3.30249374732397,-14.7882499694824,0.998349189758301,-18.8780102331577,-15.0852079391479,0.998397767543793
372,-17.9991143889674,-14.7982540130615,0.998105645179749,-17.9991143889674,-15.0852146148682,0.998181104660034
373,-15.9288929862092,-14.824462890625,0.992992758750916,-9.51972295811251,-15.0586967468262,0.993107616901398
374,-14.2597553272934,-14.8119201660156,0.995441913604736,-14.9678343869298,-15.056134223938,0.995565593242645
375,-18.9988439670279,-14.7952489852905,0.996369361877441,-17.6765337438061,-15.0523223876953,0.996367454528809
376,-7.07979929602846,-14.7671613693237,0.996557474136353,-13.7413317527712,-15.0485563278198,0.996727108955383
377,-12.9418754423496,-14.7267007827759,0.99673980474472,-13.3967752076808,-15.0121793746948,0.996995568275452
378,-9.7266808310421,-14.6415481567383,0.997914254665375,-8.52934646256242,-14.9390459060669,0.998016238212585
379,-16.4988929862092,-14.6781949996948,0.997600376605988,-16.4986225642697,-14.9540987014771,0.997657537460327
380,-14.2683540640535,-14.7106838226318,0.93095999956131,-13.0178622393559,-14.8975095748901,0.933075606822968
381,-13.0917187985793,-14.6979722976685,0.994681298732758,-19.3236035741523,-14.9263505935669,0.994734644889832
382,-10.5655513929416,-14.6774997711182,0.997655987739563,-10.2050612059452,-14.9014196395874,0.997716069221497
383,-10.9261458604483,-14.6843166351318,0.996403336524963,-14.1240953122646,-14.9091606140137,0.996635496616364
384,-15.7034384407547,-14.6590595245361,0.99813050031662,-10.5654904389535,-14.9056005477905,0.998216331005096
385,-7.55191807651041,-14.6595830917358,0.99227249622345,-8.27200933639359,-14.8235778808594,0.99254298210144
386,-16.4398551297081,-14.6894369125366,0.998469173908234,-10.5442056331102,-14.7562894821167,0.998565971851349
387,-15.8311323682818,-14.7149963378906,0.998181223869324,-20.2493357917255,-14.7812919616699,0.99829512834549
388,-6.46115152954108,-14.6230773925781,0.998189628124237,-8.74757904271117,-14.7296304702759,0.998304009437561
389,-17.595046832363,-14.6403942108154,0.990266740322113,-12.4011547746178,-14.6923112869263,0.990568697452545
390,-18.6427957073373,-14.6309394836426,0.997577607631683,-11.9137915730994,-14.6434078216553,0.997641444206238
391,-10.2088096800132,-14.6331882476807,0.987556040287018,-8.20858827725508,-14.5829086303711,0.987132549285889
392,-10.8673086207717,-14.6456642150879,0.990309298038483,-15.5688929862092,-14.5867109298706,0.990416765213013
393,-18.5740252795901,-14.6544952392578,0.997696459293365,-10.6308880602182,-14.5702590942383,0.997794151306152
394,-7.75910608789889,-14.5864877700806,0.993457973003387,-13.4041359460811,-14.5536069869995,0.993486642837524
395,-16.5860218915252,-14.6061000823975,0.774638593196869,-15.7488929862092,-14.5975942611694,0.795372784137726
396,-13.6329200849309,-14.5453224182129,0.997687458992004,-13.160802183207,-14.5918960571289,0.997848391532898
397,-14.9984011615116,-14.5019826889038,0.99798572063446,-16.4988929862092,-14.6461734771729,0.998132646083832
398,-14.7040130925133,-14.480016708374,0.997803866863251,-18.2491143889674,-14.6578416824341,0.997976005077362
399,-7.56386025705932,-14.4004459381104,0.996808469295502,-18.2278633990875,-14.659366607666,0.997070550918579
400,-7.77768347621744,-14.3799886703491,0.998975515365601,-15.7646584304181,-14.6615009307861,0.999006330966949
401,1.46918509402836,-14.2702035903931,0.998942911624908,-13.7665562494325,-14.6432847976685,0.998988807201385
402,-14.9981307395721,-14.2401971817017,0.995987117290497,-11.9970872180135,-14.603271484375,0.996475756168365
403,-19.1219773011595,-14.251389503479,0.927582681179047,-8.408016273365,-14.5493297576904,0.932153522968292
404,-13.4963044826014,-14.2621650695801,0.995707273483276,-13.4979093368139,-14.5438137054443,0.995518565177917
405,-16.1627783932574,-14.2999315261841,0.993214964866638,-6.54987408184048,-14.4774885177612,0.994082033634186
406,-21.4995571944837,-14.3332681655884,0.991870760917664,-7.59425686475921,-14.3881196975708,0.993369400501251
407,-14.8160482203351,-14.3226318359375,0.997855365276337,-15.8664910258514,-14.4131851196289,0.998093783855438
408,-17.6958598558966,-14.3670015335083,0.402991026639938,-14.5926972766679,-14.4273748397827,0.345923453569412
409,-12.697876295613,-14.3477096557617,0.99787437915802,-11.5107414565926,-14.374119758606,0.998130857944489
410,-9.53675511469249,-14.2596244812012,0.998062670230865,-14.5387822856463,-14.3995895385742,0.998301208019257
411,-5.49963434167769,-14.1746273040771,0.984252154827118,-11.348794862299,-14.3319187164307,0.986622750759125
412,-8.41666345948136,-14.1076641082764,0.997819423675537,-8.32761986789028,-14.2903480529785,0.998076915740967
413,-16.5017812467237,-14.1293306350708,0.946997404098511,-15.2561413612622,-14.3006181716919,0.957342982292175
414,-19.499065369786,-14.1318998336792,0.997798979282379,-14.998671583451,-14.3416614532471,0.998059570789337
415,-14.3774153955993,-14.1182794570923,0.997349977493286,-13.6520989935403,-14.3661441802979,0.997733235359192
416,-14.7773836262166,-14.1268119812012,0.99791032075882,-14.983135838606,-14.3560419082642,0.998181104660034
417,-6.07586983912297,-14.1208744049072,0.998026192188263,-19.3076691250589,-14.3601350784302,0.998258173465729
418,-21.4995571944837,-14.1342105865479,0.652738749980927,-13.425043968952,-14.3296422958374,0.606925249099731
419,-1.9583128455864,-14.0646877288818,0.993919610977173,-14.6030187229479,-14.3328123092651,0.994832873344421
420,-9.92252856212066,-14.0571222305298,0.385141849517822,-7.14224850833611,-14.2340459823608,0.38609254360199
421,-14.530775262231,-14.0640172958374,0.999066650867462,-15.7796899285357,-14.20924949646,0.999171257019043
422,-8.56663213970578,-14.0179805755615,0.962952017784119,-8.70078211389251,-14.184045791626,0.969902694225311
423,-13.1224711874345,-14.0177345275879,0.998273730278015,-16.4330350938132,-14.146933555603,0.998471796512604
424,-12.4103373275728,-14.0546712875366,0.997904181480408,-7.63238716621823,-14.0836086273193,0.998166382312775
425,-16.4986225642697,-14.0572414398193,0.997739791870117,-11.9979583559952,-14.0828762054443,0.998020052909851
426,-14.2098992434098,-14.0003089904785,0.997842669487,-12.637577975753,-14.0564289093018,0.998125374317169
427,-12.8241587372691,-14.0256948471069,0.982659578323364,-15.8443524842055,-14.0660104751587,0.987040340900421
428,-18.9910223097343,-14.0393152236938,0.998007118701935,-4.15366920588564,-13.9676694869995,0.998254954814911
429,-10.908022906486,-14.0549249649048,0.994712591171265,-14.7301647053703,-13.9527282714844,0.995889961719513
430,-15.2486225642697,-14.0536947250366,0.99837601184845,-13.4803744676907,-13.9291830062866,0.99854975938797
431,-17.4670082055186,-14.0501499176025,0.979632079601288,-1.85042298246202,-13.8115253448486,0.982607185840607
432,-10.4968658152554,-14.1561346054077,0.997606873512268,-17.9991143889674,-13.8907651901245,0.997839272022247
433,-11.3283186935391,-14.1816892623901,0.997919142246246,-13.0466467755466,-13.8777523040771,0.998123466968536
434,-16.2970941869472,-14.1817350387573,0.819171607494354,-1.04386196383988,-13.7650260925293,0.845934867858887
435,-9.90983389409174,-14.1439552307129,0.986065268516541,-15.9251795518746,-13.7195291519165,0.990045964717865
436,-8.39739441843926,-14.0881004333496,0.959041893482208,-19.3998593519349,-13.7605791091919,0.961684465408325
437,-14.5101289412654,-14.0648422241211,0.982540786266327,-8.69712613630295,-13.7785873413086,0.983444571495056
438,-13.6943941928704,-14.0972576141357,0.996563613414764,-1.74528150766019,-13.7134246826172,0.996881484985352
439,-16.6154343395927,-14.1180391311646,0.692158639431,-20.7495571944837,-13.7617769241333,0.713411569595337
440,-16.9986225642697,-14.1202669143677,0.978707790374756,-16.9986225642697,-13.7879686355591,0.980425953865051
441,-13.2104929864928,-14.0969352722168,0.997516751289368,-12.3677427252976,-13.7878952026367,0.997651278972626
442,-7.32720474615883,-14.0391244888306,0.993981659412384,-10.7478004454693,-13.7381267547607,0.994309782981873
443,-6.22926989512269,-14.0183153152466,0.998604476451874,-15.4802827959299,-13.7597036361694,0.998676598072052
444,-12.4340234791081,-14.0264520645142,0.990697264671326,-11.3289222836972,-13.7145280838013,0.991230130195618
445,-9.66208120721333,-14.0364027023315,0.997918307781219,-19.748204521462,-13.7132959365845,0.99806135892868
446,-15.7892174880422,-14.0664386749268,0.991322875022888,-11.8483943181092,-13.6828126907349,0.992026746273041
447,-16.0323981408484,-14.0913057327271,0.99779862165451,-13.5826305891029,-13.6416244506836,0.997981011867523
448,-9.24176376343964,-14.0445928573608,0.284664869308472,-15.7597778960764,-13.6962594985962,0.319080471992493
449,-15.6176262543066,-14.0294771194458,0.902775585651398,-13.7763982314472,-13.7197866439819,0.90507048368454
450,-19.4993357917255,-14.051438331604,0.999660015106201,-12.4179413913966,-13.7194156646729,0.999574601650238
451,-15.6137552729453,-14.0355386734009,0.995251059532166,-18.8554189609463,-13.735125541687,0.995478808879852
452,-16.4980218482275,-14.0155305862427,0.997623145580292,-14.9984011615116,-13.7151203155518,0.997780382633209
453,-6.1961612164985,-13.9297428131104,0.998098909854889,-8.88749273585264,-13.6680107116699,0.998230397701263
454,-14.9984011615116,-13.9561147689819,0.997917473316193,-8.99503955828464,-13.6214580535889,0.998059213161469
455,-22.7497785972418,-13.9788246154785,0.997688174247742,-12.3865220507408,-13.5776166915894,0.997862875461578
456,-20.2493357917255,-13.9775533676147,0.997648894786835,-17.7712798644638,-13.6027669906616,0.997811913490295
457,-16.0616582118639,-13.969687461853,0.956687152385712,-11.465760860893,-13.5358753204346,0.954279661178589
458,-20.5758482742959,-13.9839944839478,0.847236394882202,-14.2747957506336,-13.5534963607788,0.855158925056458
459,-17.9991143889674,-14.0227308273315,0.997882783412933,-16.4986225642697,-13.5619859695435,0.998000681400299
460,-8.52724389585259,-14.0154933929443,0.997888267040253,-17.7507325119447,-13.5795297622681,0.998015761375427
461,-14.9984011615116,-13.9854879379272,0.992235720157623,-13.4973086207717,-13.5595207214355,0.992644011974335
462,-15.8834593516433,-13.9985952377319,0.978152453899384,-14.8618704275176,-13.5341415405273,0.982904374599457
463,-17.9931362044708,-14.0028562545776,0.99779486656189,-14.8205893916702,-13.5934991836548,0.997926831245422
464,-19.499065369786,-14.0226154327393,0.997750341892242,-14.9978004454693,-13.5570993423462,0.997886002063751
465,-17.6876073966638,-14.0072231292725,0.446487456560135,-15.0327945843118,-13.5467672348022,0.489503681659698
466,-10.5629172905438,-13.9934501647949,0.991200149059296,-12.7484011615116,-13.5831050872803,0.991638481616974
467,-17.3678644020797,-13.9992485046387,0.997885286808014,-19.8476498375354,-13.6354570388794,0.997965216636658
468,-11.1288999703413,-13.9766864776611,0.99890673160553,-12.9142776015938,-13.6013784408569,0.998945415019989
469,-16.5625382345438,-14.0050468444824,0.997041404247284,-14.4249948433423,-13.5877637863159,0.997059404850006
470,-10.8577502657339,-13.9768762588501,0.99003005027771,-17.4468170289504,-13.5861167907715,0.990045249462128
471,-14.8429033729685,-13.9639358520508,0.994596719741821,-13.262873333376,-13.5228710174561,0.995270073413849
472,-7.49615258779956,-13.9305229187012,0.998098194599152,-16.4988929862092,-13.5468215942383,0.998181104660034
473,-13.4979093368139,-13.9571762084961,0.998213171958923,-20.9995571944837,-13.5874490737915,0.998284876346588
474,-20.2493357917255,-13.9821825027466,0.992115199565887,-13.537571668424,-13.577712059021,0.992931365966797
475,-6.21637801037732,-13.9536542892456,0.998197376728058,-10.0757367145436,-13.5248918533325,0.998298108577728
476,-6.43984221639497,-13.910475730896,0.99809855222702,-17.7245039662773,-13.5623693466187,0.998169302940369
477,-16.6302005312895,-13.8923826217651,0.998638451099396,-14.2607458297326,-13.5408573150635,0.998654007911682
478,-17.5886800540206,-13.9196529388428,1,-11.6440813980977,-13.538498878479,1
479,-15.9611081179713,-13.9160690307617,0.977356493473053,-14.3992955385567,-13.5545129776001,0.978053331375122
480,-11.1068100306364,-13.9124183654785,0.948991775512695,-12.4610984190405,-13.5364465713501,0.956224977970123
481,-3.20130838180851,-13.8307275772095,0.967945754528046,-15.1771939928411,-13.542932510376,0.972134709358215
482,-17.8215379577905,-13.8602066040039,0.998585939407349,-14.1267814090351,-13.5322570800781,0.998607099056244
483,-17.0472310638021,-13.8769111633301,0.523457825183868,-16.557762349216,-13.535605430603,0.487794578075409
484,-17.1017269667442,-13.8950109481812,0.957497298717499,-11.6773788077856,-13.5853614807129,0.958950042724609
485,-10.6758800493431,-13.839524269104,0.998106241226196,-10.3576938781719,-13.5553703308105,0.998119175434113
486,-14.9978004454693,-13.8362855911255,0.998031675815582,-16.4986225642697,-13.5845136642456,0.99804675579071
487,-20.2493357917255,-13.8350925445557,0.991284608840942,-5.26803822610923,-13.5371885299683,0.991202712059021
488,-10.9887592882333,-13.7955780029297,0.951993107795715,-11.2893051922665,-13.5469121932983,0.955358803272247
489,-14.2559769190873,-13.7706251144409,0.998004376888275,-8.42917582177119,-13.4831142425537,0.998021721839905
490,-13.2118613095203,-13.723708152771,0.998065650463104,-14.1014273884745,-13.4969463348389,0.998074412345886
491,-12.4028771909277,-13.708028793335,0.999952435493469,-13.6878749007183,-13.5060596466064,0.999940872192383
492,-9.44893733451097,-13.6837301254272,0.99644261598587,-9.88432199235887,-13.4846630096436,0.996513187885284
493,-17.6777522776257,-13.7455940246582,0.970862329006195,-15.4959110675235,-13.4924554824829,0.975252151489258
494,-14.3605001290663,-13.7251901626587,0.993889689445496,-14.0164797071269,-13.5042381286621,0.994267702102661
495,-15.9096613962761,-13.7814645767212,0.999132931232452,-10.3593790887559,-13.479416847229,0.999126136302948
496,-9.29020072690202,-13.7263097763062,0.99824321269989,-9.81163482700999,-13.4268493652344,0.998217880725861
497,-7.3247279756104,-13.7125196456909,0.771649539470673,-16.2509486949513,-13.4926900863647,0.785867869853973
498,-10.6004929442965,-13.6960430145264,0.998135447502136,-1.37305218635342,-13.4433269500732,0.998156726360321
499,-16.1865013521485,-13.7312612533569,0.942505836486816,-17.4988439670279,-13.502516746521,0.948512554168701
500,-10.6410465917159,-13.6922101974487,0.995619118213654,-9.07072877836124,-13.4329957962036,0.995796084403992
501,-13.3539347413458,-13.6683416366577,0.99803239107132,-7.20739213104484,-13.3569250106812,0.998037755489349
502,-11.3830854191308,-13.6642465591431,0.999805748462677,-15.2564401560205,-13.3486433029175,0.99981552362442
503,-10.5134588316978,-13.6136083602905,0.9982950091362,-10.2184767884564,-13.3444671630859,0.99830037355423
504,-10.4971961093581,-13.5485954284668,0.998095452785492,-16.4988929862092,-13.3161287307739,0.998117923736572
505,-11.9974175121163,-13.538595199585,0.997568547725677,-13.4981797587534,-13.3061256408691,0.997545421123505
506,-13.5912151568623,-13.5437154769897,0.998119056224823,-7.68153868696786,-13.2417974472046,0.998136520385742
507,-19.9222591443444,-13.5965461730957,0.99776554107666,-2.18290785423227,-13.1463708877563,0.997814774513245
508,-15.7481307395721,-13.5838928222656,0.997763872146606,-9.89987789328588,-13.1061010360718,0.997740626335144
509,-13.8124064997227,-13.5659875869751,0.920092344284058,-9.065206482442,-13.0603532791138,0.925836086273193
510,-14.9984011615116,-13.568507194519,0.998203635215759,-16.4980218482275,-13.0571928024292,0.998196542263031
511,-9.24470420860879,-13.5031280517578,0.994106769561768,-11.7102100449895,-13.0757942199707,0.994113504886627
512,-14.9984011615116,-13.5217332839966,0.993852734565735,-13.4948076035311,-13.0772800445557,0.993910312652588
513,-13.4294100635887,-13.5456628799438,0.743097126483917,-11.9688973070343,-13.067494392395,0.760213077068329
514,-13.4981797587534,-13.5089893341064,0.987923681735992,-16.4986225642697,-13.0590848922729,0.98736983537674
515,-18.0710141134038,-13.5185871124268,0.994277060031891,-19.7915152364417,-13.122706413269,0.994489431381226
516,-13.5481307395721,-13.4789123535156,0.98372894525528,-13.9139202132563,-13.1254768371582,0.982976675033569
517,-7.57445202215192,-13.4280872344971,0.997995734214783,-16.7577350786225,-13.1672849655151,0.997972428798676
518,-9.81460325210389,-13.4299716949463,0.99536395072937,-12.1569377468774,-13.1921730041504,0.995437204837799
519,-0.327370224436928,-13.3221683502197,0.992684423923492,-17.5964197781889,-13.1994953155518,0.993147075176239
520,-17.9991143889674,-13.34264087677,0.998297989368439,-16.4988929862092,-13.1998205184937,0.998266041278839
521,-12.9321198631297,-13.4068384170532,0.999726951122284,-20.1092063172907,-13.208028793335,0.999674558639526
522,-16.4983521423302,-13.3968324661255,0.998121082782745,-14.9978004454693,-13.1880197525024,0.998122036457062
523,-10.6381052002672,-13.3615608215332,0.998803496360779,-7.23383016766123,-13.1727809906006,0.998754024505615
524,-4.37627738660395,-13.295672416687,0.98847883939743,-17.7486225642697,-13.1913194656372,0.988464713096619
525,-7.26821397857691,-13.2174673080444,0.997973144054413,-17.5380681860917,-13.1903963088989,0.997960925102234
526,-16.4986225642697,-13.2802600860596,0.998106837272644,-16.4986225642697,-13.2087783813477,0.998095333576202
527,-12.1286145413621,-13.2748374938965,0.99454653263092,-14.6195191739339,-13.2169303894043,0.994648635387421
528,-14.1412287526326,-13.3042678833008,0.545888245105743,-15.424075467961,-13.2628946304321,0.571678876876831
529,-15.414467112136,-13.2970380783081,0.996801137924194,-6.44620108448249,-13.1958780288696,0.996819376945496
530,-15.9065506438669,-13.3079595565796,0.99202173948288,-16.0414153570625,-13.2160348892212,0.991947114467621
531,-14.620062668646,-13.3181495666504,0.998077988624573,-12.7554719335776,-13.1722478866577,0.998078227043152
532,-13.3015561988357,-13.336389541626,0.998372614383698,-16.2298836197366,-13.2124137878418,0.998370110988617
533,-16.6842995741525,-13.37477684021,0.935821115970612,-14.1902510109006,-13.212854385376,0.9378901720047
534,-4.54864441249721,-13.3004121780396,0.998478949069977,-9.38730862077169,-13.2049999237061,0.998479902744293
535,-13.7993044948434,-13.3420600891113,0.987960517406464,-13.5770232608645,-13.2403659820557,0.989135026931763
536,-17.9991143889674,-13.3524560928345,0.998559176921844,-14.9984011615116,-13.2700614929199,0.998538017272949
537,-16.0046466606553,-13.3536128997803,0.998118937015533,-14.6010812220053,-13.2324066162109,0.998120486736298
538,-8.69703819883221,-13.3685178756714,0.997710824012756,-7.03475056597392,-13.2209882736206,0.997749745845795
539,-15.5383174738003,-13.3548069000244,0.54296338558197,-10.2342623440308,-13.2065420150757,0.533825159072876
540,-17.3099251997782,-13.3459215164185,0.998441398143768,-8.4101205181574,-13.1831846237183,0.998431980609894
541,-11.7684123760445,-13.3563184738159,0.998872458934784,-5.74724512853944,-13.1667747497559,0.998867988586426
542,-16.9986225642697,-13.3971939086914,0.973487257957458,-19.4993357917255,-13.1929779052734,0.975139439105988
543,-8.7384286747965,-13.3316240310669,0.998038589954376,-16.9980218482275,-13.2354259490967,0.998063743114471
544,-14.8976940583494,-13.3792142868042,0.995055913925171,-7.46106101714016,-13.1958045959473,0.995323836803436
545,-11.941305563229,-13.3482494354248,0.993175566196442,-4.81663688284122,-13.1229228973389,0.993602335453033
546,-14.1117195895346,-13.3514413833618,0.998317360877991,-22.7497785972418,-13.1868495941162,0.998444139957428
547,-3.44491954714409,-13.2744178771973,0.998055338859558,-13.2721488001627,-13.1653385162354,0.99810117483139
548,-16.4988929862092,-13.2863836288452,0.998182535171509,-16.4986225642697,-13.1536684036255,0.998205661773682
549,-10.0042051724958,-13.3026523590088,0.96787291765213,-14.8126370704762,-13.1309003829956,0.968951463699341
550,-10.3013775449064,-13.3194770812988,0.998013257980347,-8.1246957966062,-13.079966545105,0.998033225536346
551,-16.4988929862092,-13.4392642974854,0.997463822364807,-14.9984011615116,-13.0881786346436,0.997475922107697
552,-13.6800741771729,-13.4304780960083,0.998139619827271,-12.0906512722978,-13.0888032913208,0.998173832893372
553,-7.09041420235214,-13.3502683639526,0.994833827018738,-12.9163644997536,-13.1188583374023,0.995647609233856
554,-7.15861059775566,-13.3080167770386,0.997564077377319,-10.0718759038781,-13.0960178375244,0.997653782367706
555,-12.8807098792353,-13.2861356735229,0.998050332069397,-10.8681698617666,-13.1248073577881,0.998375296592712
556,-10.1113355244459,-13.2102136611938,0.997932195663452,-16.9698864380704,-13.187310218811,0.998003661632538
557,-14.3983904736464,-13.2074289321899,0.997414588928223,-10.1330360319128,-13.1490879058838,0.997535467147827
558,-12.8932973183392,-13.1754121780396,0.998419404029846,-11.4984011615116,-13.1284599304199,0.998466789722443
559,-16.8299697948424,-13.2029590606689,0.997805058956146,-8.01910222151911,-13.1051826477051,0.997876763343811
560,-13.033108723245,-13.2262678146362,0.973765254020691,-15.1327456774273,-13.1091413497925,0.975127696990967
561,-17.3583846030703,-13.3053274154663,0.997754514217377,-16.711128523243,-13.144889831543,0.997831881046295
562,-5.4474665312976,-13.2855319976807,0.996472358703613,-19.1618357917255,-13.2171182632446,0.996688544750214
563,-13.4979093368139,-13.2655067443848,0.998878300189972,-10.4971961093581,-13.1853923797607,0.99887079000473
564,-17.8012883020108,-13.2541885375977,0.998214602470398,-7.88186982670918,-13.1379470825195,0.998225033283234
565,-13.9520179862092,-13.2513523101807,0.991903841495514,-9.9513047587534,-13.1132745742798,0.992502808570862
566,-8.33225236035963,-13.2083854675293,0.793584823608398,-11.4742453892536,-13.0898818969727,0.787735044956207
567,-14.498671583451,-13.2645378112793,0.992233514785767,-21.9997785972418,-13.1078300476074,0.992518782615662
568,-12.0349865273652,-13.2014408111572,0.997699797153473,-7.92621942857089,-13.0711698532104,0.997747957706451
569,-16.1029273057289,-13.2957372665405,0.973131120204926,-13.5128856411063,-13.0639028549194,0.973554849624634
570,-11.7136970001327,-13.3076791763306,0.936883211135864,-12.9468984263387,-13.1026010513306,0.9409259557724
571,-13.3298404146199,-13.2996730804443,0.966951847076416,-15.9631787004949,-13.1038236618042,0.971383690834045
572,-9.6279904389535,-13.3067483901978,0.997675597667694,-7.06504763343718,-13.0929193496704,0.997707962989807
573,-12.6044297587534,-13.303295135498,0.998540282249451,-14.6238929862092,-13.0808572769165,0.998539805412292
574,-14.0680732926591,-13.3143463134766,0.998140692710876,-12.9483987148423,-13.1162967681885,0.998135089874268
575,-11.6031638263467,-13.2817096710205,0.998155772686005,-16.6568028465556,-13.1473569869995,0.998156487941742
576,-18.1415875072469,-13.3079204559326,0.997566342353821,-11.5707604039147,-13.1402444839478,0.997635960578918
577,-8.74973949354042,-13.2807588577271,0.99526572227478,-12.5009445456939,-13.117956161499,0.995511412620544
578,-13.5666266617588,-13.2445955276489,0.886988520622253,-14.784336849984,-13.1888275146484,0.863060235977173
579,-11.9979583559952,-13.2518615722656,0.997287273406982,-11.9970872180135,-13.1706066131592,0.997398495674133
580,1.48854494072604,-13.1402807235718,0.998249292373657,-4.23132145224776,-13.1089458465576,0.998223841190338
581,-17.0306946767429,-13.1373710632324,0.981462478637695,-19.304213840506,-13.225305557251,0.981521725654602
582,-15.6592505835934,-13.1717872619629,0.998564898967743,-10.9486628505408,-13.1783027648926,0.998519241809845
583,-15.5958447864919,-13.2002372741699,0.99818217754364,-16.7074477223007,-13.2027063369751,0.99820864200592
584,-13.433186322659,-13.1811456680298,0.997784793376923,-6.63835710943171,-13.2400045394897,0.99782407283783
585,-15.3350998827609,-13.2173147201538,0.999099969863892,-14.6258362301871,-13.2313413619995,0.999113261699677
586,-14.5110706970498,-13.2580718994141,0.997464895248413,-10.0116652359318,-13.1687536239624,0.997514367103577
587,-14.0728832638207,-13.2551574707031,0.998051643371582,-13.7590003047895,-13.2025003433228,0.998079299926758
588,-10.0373963272734,-13.2307767868042,0.997605204582214,-3.52981154477469,-13.2143964767456,0.997622787952423
589,-14.3905261324793,-13.2159442901611,0.335591584444046,-11.7222872139174,-13.1542139053345,0.316267997026443
590,-3.67017897241074,-13.1270875930786,0.996626019477844,-8.74195022913772,-13.0991697311401,0.99662721157074
591,-12.3551517580266,-13.1213855743408,0.947215855121613,-2.51012475392166,-13.0334529876709,0.960588812828064
592,-16.8559868241707,-13.1849117279053,0.989894807338715,-18.2488439670279,-13.083459854126,0.990407645702362
593,-7.51148592344509,-13.1934595108032,0.778887629508972,-0.539721028419326,-12.9838562011719,0.78680408000946
594,-2.80955738268958,-13.1292972564697,0.998505711555481,-5.64635960305439,-12.9459714889526,0.998557031154633
595,-13.0235013800488,-13.1517057418823,0.980451881885529,-3.06907431903926,-12.8347778320312,0.981649935245514
596,-18.9982432509856,-13.1730985641479,0.616512835025787,-12.7328736363044,-12.8406744003296,0.655271053314209
597,-13.0110172624634,-13.1529560089111,0.994461596012115,-16.9834118682624,-12.8633460998535,0.995132267475128
598,-17.3053643889674,-13.206711769104,0.997952342033386,-6.12064027432687,-12.7990856170654,0.998018741607666
599,-11.9979583559952,-13.182580947876,0.998796105384827,-7.4967533038418,-12.7572212219238,0.998803377151489
600,-18.8466844174051,-13.1782312393188,0.996151864528656,-5.5371206029734,-12.7113494873047,0.995725393295288
601,-12.5797526645321,-13.1580047607422,0.998049259185791,-16.005649742966,-12.6923503875732,0.998102843761444
602,-7.27365700748807,-13.0965089797974,0.99685126543045,-15.3441310814473,-12.694655418396,0.997011661529541
603,-14.9981307395721,-13.1551885604858,0.99877005815506,-13.4979093368139,-12.7253904342651,0.998786628246307
604,-11.9979583559952,-13.1351852416992,0.995463788509369,-14.9981307395721,-12.7654113769531,0.995861709117889
605,-10.4965953933159,-13.0534982681274,0.995144248008728,-16.4986225642697,-12.7928266525269,0.995245516300201
606,-1.29023156471136,-12.9271049499512,0.998315691947937,-6.98621765279614,-12.7209253311157,0.998347401618958
607,-11.7484501806929,-12.8983497619629,0.98774790763855,-11.6831837702072,-12.7223749160767,0.9887815117836
608,-16.3512381218909,-12.8701858520508,0.998392403125763,-5.24689883076569,-12.6621885299683,0.998428523540497
609,-11.2502866239386,-12.8251924514771,0.996066749095917,-4.46136544826511,-12.5819396972656,0.996125519275665
610,-3.63240019099077,-12.7925605773926,0.980330646038055,-4.88128716147585,-12.4961442947388,0.98099410533905
611,-8.62944622672907,-12.7501010894775,0.75364750623703,-13.0060153747095,-12.4928693771362,0.764624714851379
612,-3.55600870442125,-12.6679182052612,0.755183935165405,-13.3450299643783,-12.4827575683594,0.754092395305634
613,-12.5521058376148,-12.6316442489624,0.997592747211456,-10.5333203210024,-12.4541749954224,0.997628390789032
614,-10.2884657197447,-12.5702409744263,0.983215987682343,-10.1653895785,-12.4219598770142,0.984013378620148
615,-14.561353191576,-12.5493993759155,0.998838007450104,-9.32105798753568,-12.3838806152344,0.998823940753937
616,-9.36524195834787,-12.5414142608643,0.998024225234985,-8.24768793405576,-12.3538751602173,0.998003900051117
617,-13.4981797587534,-12.5156164169312,0.998153746128082,-7.49481815552648,-12.271523475647,0.998110890388489
618,-13.0581572590725,-12.5284786224365,0.994082510471344,-10.4433017099729,-12.2550506591797,0.995032072067261
619,-22.4997785972418,-12.5680599212646,0.998181939125061,-13.4979093368139,-12.2488708496094,0.998156607151031
620,-9.53102126738909,-12.5592155456543,0.998160183429718,-9.51324348961131,-12.1959810256958,0.998168349266052
621,-8.19661485538334,-12.5149068832397,0.771885395050049,-8.0426751770343,-12.1611795425415,0.717420697212219
622,-15.415761374468,-12.5677032470703,0.286637991666794,-13.6098123659694,-12.141918182373,0.277679413557053
623,-12.4515678733993,-12.5607271194458,0.996110379695892,-13.1169642663779,-12.0893678665161,0.996318578720093
624,-13.4981797587534,-12.5157203674316,0.998165667057037,-11.9976879340558,-12.0791015625,0.9981330037117
625,-12.3575790427112,-12.556661605835,0.481419295072556,-17.8491143889674,-12.1309232711792,0.422559976577759
626,-7.56564834947941,-12.5641670227051,0.996555089950562,-16.8940771097243,-12.1253871917725,0.996552109718323
627,-9.31179049815832,-12.5153779983521,0.935808062553406,-16.8196272094802,-12.1424474716187,0.941665649414062
628,-11.0362619839309,-12.4716939926147,0.998048782348633,-13.9601610258082,-12.1578874588013,0.998045444488525
629,-12.6533122564929,-12.4496431350708,0.998243451118469,-2.65172427098645,-12.0795707702637,0.998310565948486
630,-15.900359118543,-12.4815998077393,0.998075008392334,-12.2649853884485,-12.0782623291016,0.998082399368286
631,-8.99691483443669,-12.5202379226685,0.99791020154953,-4.49410492807068,-12.0070419311523,0.997930645942688
632,-8.6357697639163,-12.4589986801147,0.420605063438416,-9.0459417869371,-11.9731693267822,0.406502366065979
633,-8.30950051347038,-12.4007472991943,0.997750103473663,-3.13370728726688,-11.8836765289307,0.997805178165436
634,-12.9456412804207,-12.3730401992798,0.998879492282867,-10.6466778330457,-11.876805305481,0.998915672302246
635,-14.140272296554,-12.3961362838745,0.998501777648926,-12.3874556178831,-11.8903369903564,0.998532891273499
636,-18.9982432509856,-12.4228048324585,0.996567845344543,-15.8849083118797,-11.8862447738647,0.996769189834595
637,-11.3354062773286,-12.3633794784546,0.998619198799133,-16.7437419262116,-11.9627504348755,0.998633205890656
638,-9.7778240275281,-12.3553066253662,0.987120151519775,-14.7092628960622,-11.9855499267578,0.98800140619278
639,-13.0017531915111,-12.34694480896,0.997871041297913,-12.8298899977081,-12.0148878097534,0.997944056987762
640,-14.998671583451,-12.3588571548462,0.999382853507996,-13.4975790427112,-12.0108623504639,0.999382972717285
641,-16.3782475259199,-12.3853597640991,0.98492705821991,-17.2609257514145,-12.0346822738647,0.98640775680542
642,-13.2640261615116,-12.4107933044434,0.997997462749481,-12.2093386615116,-12.0501832962036,0.998086333274841
643,-13.6859011615116,-12.384181022644,0.998192489147186,-14.3925412380628,-12.0428276062012,0.998250901699066
644,-15.4557895379333,-12.3914823532104,0.998080492019653,-13.6538439972441,-12.0404090881348,0.998155415058136
645,-6.31771692139013,-12.3275375366211,0.998852729797363,-17.4197730716021,-12.0874786376953,0.998928487300873
646,-20.4621556196805,-12.4020166397095,0.996508419513702,-11.0262306385691,-12.0955762863159,0.996663630008698
647,-12.5406353364351,-12.43678855896,0.998173594474792,-10.4161336358793,-12.056676864624,0.998238563537598
648,-8.87909311771854,-12.4253129959106,0.998690068721771,-3.93566012262333,-12.0737609863281,0.99871814250946
649,-16.7729098282742,-12.4292230606079,0.990013599395752,-8.063543555103,-12.0108594894409,0.990355610847473
650,-11.9970872180135,-12.4382629394531,0.998618006706238,-10.495861677085,-12.0203609466553,0.998630285263062
651,-15.6976109349271,-12.4538879394531,0.99849545955658,-10.7794089220043,-12.0441741943359,0.998478949069977
652,-21.3955720962858,-12.520637512207,0.796834409236908,-9.36846692601551,-12.0049209594727,0.808101952075958
653,-5.15584879477453,-12.484920501709,0.773763239383698,-7.78194947258681,-11.9886779785156,0.82181453704834
654,-16.3368267996459,-12.523850440979,0.998150765895844,-14.7564037158229,-11.9770603179932,0.998180747032166
655,-14.998671583451,-12.5438594818115,0.99819153547287,-13.4981797587534,-11.9770603179932,0.998210310935974
656,-18.2101652848131,-12.5746517181396,0.968309342861176,-7.08368970271115,-11.9730749130249,0.968162834644318
657,-12.0973154312552,-12.5224857330322,0.986232221126556,-16.0699298396111,-12.0656547546387,0.986728727817535
658,-8.38018565845841,-12.4733657836914,0.998858094215393,-8.06714621506368,-12.0534362792969,0.998899102210999
659,-10.2481797587534,-12.4496040344238,0.998182535171509,-16.7577350786225,-12.1047201156616,0.998265087604523
660,-16.4988929862092,-12.4596080780029,0.998185813426971,-16.4988929862092,-12.1047267913818,0.998290359973907
661,-22.7497785972418,-12.5496416091919,0.999572455883026,-11.0783591638035,-12.1005144119263,0.999590337276459
662,-5.88571726017933,-12.4888896942139,0.577206015586853,-10.6521532686872,-12.0815620422363,0.602878153324127
663,-11.7979730725989,-12.4780139923096,0.999007642269135,-13.4788063467807,-12.0916290283203,0.999139785766602
664,-13.3605951138688,-12.4770965576172,0.995720326900482,-18.2491143889674,-12.1032991409302,0.996091544628143
665,-10.4974665312976,-12.4266061782837,0.997615933418274,-8.99414339525658,-12.0313167572021,0.997766137123108
666,-11.9979583559952,-12.4162731170654,0.998006880283356,-16.4983521423302,-12.0485467910767,0.998150229454041
667,-11.4547608603045,-12.4421405792236,0.998270392417908,-1.00178990359684,-11.9435062408447,0.998375296592712
668,-10.4971961093581,-12.4466915130615,0.998142957687378,-14.998671583451,-11.9624509811401,0.998282313346863
669,-17.4045082055186,-12.5605382919312,0.999062240123749,-7.32396019745428,-11.893967628479,0.999116003513336
670,-11.3316531791784,-12.5160894393921,0.997374892234802,-17.3858138963565,-11.899881362915,0.997597992420197
671,-10.5940542765318,-12.5005025863647,0.997743129730225,-14.9507272921932,-11.8654918670654,0.997925281524658
672,-12.1792497176011,-12.4717082977295,0.700763821601868,-14.1095122726227,-11.8595695495605,0.724562287330627
673,-18.0555660018706,-12.5211582183838,0.997876882553101,-13.8739231287327,-11.9038362503052,0.998040497303009
674,-13.4975790427112,-12.5819673538208,0.99720311164856,-8.99637399055772,-11.8454885482788,0.99748021364212
675,-11.8388266934265,-12.61243724823,0.998354315757751,-16.227345968525,-11.8367500305176,0.998469769954681
676,-16.0663042844882,-12.6095552444458,0.996791779994965,-12.557102852235,-11.8104724884033,0.996971607208252
677,-11.1249452593004,-12.6028642654419,0.997424244880676,-15.2923118846581,-11.8149585723877,0.997665882110596
678,-13.8105491697743,-12.6006593704224,0.998122036457062,-14.2736305193097,-11.8072891235352,0.998236179351807
679,-4.37716071208265,-12.5270767211914,0.998386144638062,-9.53878382446672,-11.8279056549072,0.99848085641861
680,-12.0890960603852,-12.5016279220581,0.998955607414246,-10.6462386586934,-11.7919387817383,0.999049961566925
681,-14.9978004454693,-12.5041456222534,0.998324573040009,-16.4986225642697,-11.8168926239014,0.998433172702789
682,-17.8743357917255,-12.534631729126,0.998525321483612,-18.0305857917255,-11.8288974761963,0.998597919940948
683,-13.4970381988322,-12.5133829116821,0.990235209465027,-16.4983521423302,-11.8442850112915,0.992148280143738
684,-12.5515507678108,-12.5667352676392,0.998156487941742,-12.5886819206744,-11.865626335144,0.99827766418457
685,-3.45812669783193,-12.4977941513062,0.99796462059021,-15.0762303906893,-11.8756217956543,0.998088419437408
686,-10.4965953933159,-12.4477767944336,0.998687446117401,-13.4981797587534,-11.8656196594238,0.998751521110535
687,-10.0822888579258,-12.4082946777344,0.997839033603668,-6.18450845238111,-11.8095083236694,0.997996628284454
688,-19.3988245937511,-12.479640007019,0.998750686645508,-15.2889156045628,-11.8645362854004,0.998805999755859
689,-15.9647193379478,-12.4824819564819,0.991329073905945,-14.9271559319941,-11.8958234786987,0.991855263710022
690,-14.9978004454693,-12.4670686721802,0.998064458370209,-8.99610356861824,-11.8997297286987,0.998197853565216
691,-11.0275915234593,-12.4621305465698,0.994356572628021,-16.9111004976079,-11.9741554260254,0.994783937931061
692,-11.9479093368139,-12.4284582138062,0.998114466667175,-6.99713623719485,-11.8908071517944,0.998242139816284
693,-8.85661559981149,-12.4292459487915,0.342160820960999,-9.7997998408679,-11.8428192138672,0.405705153942108
694,-17.8175643461748,-12.448712348938,0.990968286991119,-11.6010389247156,-11.8704195022583,0.991790294647217
695,-12.3050765723088,-12.4511375427246,0.998449325561523,-6.64372512486533,-11.8825988769531,0.998522579669952
696,-9.96310471929141,-12.4234800338745,0.621969938278198,-9.2793908182954,-11.792797088623,0.685322761535645
697,-18.1031684430214,-12.521201133728,0.996844172477722,-20.7495571944837,-11.8426465988159,0.996943295001984
698,-8.91945404271117,-12.4706726074219,0.986563920974731,-11.9665504454693,-11.8124322891235,0.986709892749786
699,-17.9991143889674,-12.5239715576172,0.999014854431152,-14.9978004454693,-11.8136672973633,0.999062716960907
700,-18.1319208901048,-12.5761747360229,0.998029410839081,-16.2806528505058,-11.8680400848389,0.998156487941742
701,-11.9970872180135,-12.5461616516113,0.998253643512726,-8.99414339525658,-11.8280115127563,0.998352408409119
702,-13.2484011615116,-12.5432844161987,0.998484671115875,-9.07941641317652,-11.807936668396,0.998570561408997
703,-19.2491143889674,-12.624342918396,0.997916042804718,-18.6653021782801,-11.8462629318237,0.998043417930603
704,-21.4995571944837,-12.7199487686157,0.994845151901245,-14.6175354415989,-11.8765678405762,0.995202898979187
705,-7.85969983062614,-12.6864757537842,0.863843560218811,-5.18680575519531,-11.8386917114258,0.823998987674713
706,-11.3872375095133,-12.6949815750122,0.998255431652069,-16.9882056691555,-11.8388137817383,0.998368680477142
707,-10.4404277899229,-12.6685953140259,0.996809780597687,-9.79801197472647,-11.8365802764893,0.997093915939331
708,-8.4961351390247,-12.6392803192139,0.996404647827148,-11.165611200168,-11.834361076355,0.996663391590118
709,-19.4354260172894,-12.6566505432129,0.996272087097168,-7.55265607665674,-11.8312520980835,0.996636629104614
710,-16.4986225642697,-12.6797542572021,0.996111810207367,-11.9970872180135,-11.8103475570679,0.996577799320221
711,-12.9171401060447,-12.650146484375,0.997380673885345,-11.5435713582701,-11.775897026062,0.997577607631683
712,-12.8524451683567,-12.6995124816895,0.99861216545105,-8.71466906613123,-11.7062492370605,0.998687565326691
713,-13.4115435886188,-12.6989364624023,0.997846841812134,2.83543374376378,-11.6173648834229,0.997987270355225
714,-11.283022906486,-12.655481338501,0.995087325572968,-13.2820187683156,-11.6533660888672,0.993485867977142
715,-15.5214071439232,-12.6659440994263,0.99328738451004,-11.3937080207173,-11.6629829406738,0.993965327739716
716,-14.3851414930033,-12.7062959671021,0.991642832756042,-11.2776771083129,-11.6616725921631,0.991990983486176
717,-17.1397706079545,-12.7239036560059,0.998861193656921,-15.5848003221165,-11.6189050674438,0.998960494995117
718,-8.38186672353417,-12.6995487213135,0.804073750972748,-11.3307360063285,-11.6416025161743,0.773007273674011
719,-14.2854825012245,-12.6874332427979,0.974798262119293,-5.13768406511303,-11.585768699646,0.977916181087494
720,-16.4986225642697,-12.7193326950073,0.984087288379669,-14.9978004454693,-11.599440574646,0.986638426780701
721,-13.8520179862092,-12.7228145599365,0.72031831741333,-14.4579975642697,-11.5894060134888,0.7760009765625
722,-10.4971362371948,-12.7286081314087,0.99816483259201,-5.99343016780078,-11.5822620391846,0.998266398906708
723,-12.3115624733453,-12.7266550064087,0.996823191642761,-15.6199630974544,-11.588903427124,0.996992945671082
724,-11.3957165354421,-12.7088394165039,0.998202323913574,-11.0719436715779,-11.5763931274414,0.998310804367065
725,-3.65532809034779,-12.6558542251587,0.998102128505707,-8.50195754926167,-11.522027015686,0.99819403886795
726,-14.7593247694228,-12.6333055496216,0.99196058511734,-13.9317288071047,-11.537766456604,0.992876470088959
727,-8.2605811440591,-12.6300458908081,0.991310119628906,-6.62288207541797,-11.4985799789429,0.990865409374237
728,-18.9301868555553,-12.6658020019531,0.988266408443451,-13.1786515092991,-11.4878749847412,0.987653434276581
729,-8.02135188161607,-12.6392917633057,0.997534394264221,-19.4993357917255,-11.5378894805908,0.997692942619324
730,-0.667426871757336,-12.6536655426025,0.997940242290497,-8.5052790312976,-11.5663833618164,0.998014569282532
731,-17.9991143889674,-12.6601209640503,0.998192369937897,-11.9974175121163,-11.5176706314087,0.998268008232117
732,-17.9991143889674,-12.6757202148438,0.998244404792786,-10.4969256874186,-11.5146589279175,0.998327910900116
733,-13.5174594574757,-12.6618642807007,0.997334241867065,-15.8542741521285,-11.5089712142944,0.997446775436401
734,-19.4957256834223,-12.70228099823,0.997556090354919,-5.51215618363098,-11.5014629364014,0.997711896896362
735,-10.8347070375434,-12.6722784042358,0.966655552387238,-15.0552507638901,-11.5043258666992,0.969069302082062
736,-4.57868784737982,-12.6060628890991,0.996034681797028,-12.9921197544764,-11.5241956710815,0.996640920639038
737,-14.0756150150057,-12.6060810089111,0.360427677631378,-7.18891879538782,-11.4803943634033,0.410450637340546
738,-14.4138004454693,-12.6352567672729,0.999029159545898,-2.73032633082884,-11.4750652313232,0.999060571193695
739,-15.3307311405627,-12.6415252685547,0.992217659950256,-7.73100832022776,-11.4484567642212,0.992864608764648
740,-11.8546511615116,-12.6960878372192,0.996771991252899,-8.72844610935811,-11.4483671188354,0.997031450271606
741,-10.8921444025069,-12.6863346099854,0.978192269802094,-8.19056003706935,-11.4862365722656,0.977921307086945
742,-11.2534347185585,-12.6489839553833,0.997593581676483,-9.63739248453852,-11.4288272857666,0.9977947473526
743,-10.7841154472258,-12.670802116394,0.989239454269409,-10.2479093368139,-11.4935483932495,0.992105960845947
744,-13.0734633286009,-12.7392282485962,0.541257560253143,-11.5302482952695,-11.5327730178833,0.561411678791046
745,-6.10103795986902,-12.6930780410767,0.806501448154449,-5.17543724382679,-11.5468168258667,0.745973944664001
746,-9.58836426005427,-12.6303462982178,0.964781999588013,-12.3669130268508,-11.544376373291,0.966536939144135
747,-17.3201914066988,-12.6590738296509,0.989629805088043,-13.2323583807629,-11.5193700790405,0.989702641963959
748,-7.49588216586008,-12.5936765670776,0.998276472091675,-13.4979093368139,-11.5685510635376,0.998362243175507
749,-10.058032761642,-12.5807437896729,0.988625764846802,-21.4995571944837,-11.6619024276733,0.989371836185455
750,-7.49615258779956,-12.5050735473633,0.998107314109802,-10.4968658152554,-11.6949682235718,0.998187363147736
751,-15.7255881530744,-12.5260467529297,0.994718015193939,-17.4116346647023,-11.7043409347534,0.995293200016022
752,-7.64875220490205,-12.528546333313,0.999973297119141,-9.64724512853944,-11.6663627624512,0.999974131584167
753,-13.5052069374496,-12.518593788147,0.99681144952774,-13.6740768371872,-11.667537689209,0.997008740901947
754,-11.006468743785,-12.51198387146,0.996555685997009,-5.39947350751039,-11.6035461425781,0.996838331222534
755,-16.2831053228904,-12.5505619049072,0.995045304298401,-20.0340399531044,-11.6271162033081,0.996007263660431
756,-14.5564596633464,-12.6390018463135,0.987601459026337,-16.1706806957064,-11.6883459091187,0.988419890403748
757,-12.936171583451,-12.6469202041626,0.859200716018677,-14.9356307395721,-11.7100286483765,0.858775436878204
758,-16.1286225642697,-12.6454362869263,0.997833549976349,-14.2384011615116,-11.7699728012085,0.997941076755524
759,-8.74757904271117,-12.6287517547607,0.995838165283203,-8.90443149621164,-11.7995910644531,0.996077477931976
760,-18.1827723242333,-12.725754737854,0.998345375061035,-8.08777851944508,-11.8209686279297,0.998375296592712
761,-17.2925598140224,-12.7835092544556,0.994531869888306,-14.9021198534482,-11.8336086273193,0.991726160049438
762,-14.224847868826,-12.8546333312988,0.988997101783752,-9.16112628458935,-11.8057165145874,0.98974484205246
763,-4.01062728314527,-12.7976903915405,0.998942196369171,-8.21027745889353,-11.7902297973633,0.99895167350769
764,-11.523223856547,-12.8059225082397,0.520251989364624,-10.0890480961846,-11.7897205352783,0.544397234916687
765,-18.0912196521253,-12.8294544219971,0.908783316612244,-13.9806743627274,-11.8207845687866,0.915145576000214
766,-7.669784395182,-12.8181524276733,0.997899413108826,-15.5202988648478,-11.8692684173584,0.997979342937469
767,-20.2493357917255,-12.8631591796875,0.982020556926727,-8.47924082012933,-11.8758316040039,0.983538329601288
768,-14.8541618679767,-12.8751335144043,0.996108829975128,-7.67944339522337,-11.8574066162109,0.996304392814636
769,-6.31470123895136,-12.7672328948975,0.998094499111176,-3.43314027432687,-11.7903070449829,0.998113751411438
770,-17.3412196521253,-12.819299697876,0.476268619298935,-9.4981797587534,-11.7902069091797,0.452237963676453
771,-11.9970872180135,-12.8446369171143,0.996138513088226,-11.9976879340558,-11.8165740966797,0.996304988861084
772,-11.8321950510996,-12.8207473754883,0.995073854923248,-13.3112583043687,-11.8145837783813,0.994744300842285
773,-6.440345491371,-12.7806720733643,0.996191620826721,-17.3896253378725,-11.8430681228638,0.996426999568939
774,-10.4971961093581,-12.7606658935547,0.998089134693146,-13.4976389148744,-11.8530673980713,0.998107075691223
775,-11.2471401060447,-12.7532615661621,0.948424398899078,-11.8104874510611,-11.8128099441528,0.956167995929718
776,-14.9920165971693,-12.8027715682983,0.376485109329224,-13.1999970871556,-11.7881832122803,0.409376114606857
777,-13.6942572246198,-12.8319873809814,0.99578469991684,-8.17092827761617,-11.7305250167847,0.995810508728027
778,-12.3729699964331,-12.8408994674683,0.993656933307648,-7.9485247323558,-11.690447807312,0.993482291698456
779,-10.9984011615116,-12.8298664093018,0.989742398262024,-18.0860532693535,-11.7933435440063,0.990067958831787
780,-11.9976879340558,-12.8038482666016,0.998896241188049,-13.4981797587534,-11.8015642166138,0.998890221118927
781,-14.0971937509387,-12.8378496170044,0.994762122631073,-16.3437205724161,-11.8805618286133,0.994982302188873
782,-11.3882027103755,-12.8561992645264,0.826614856719971,-9.91962242928113,-11.8863859176636,0.842118799686432
783,-13.7295660151626,-12.892333984375,0.99084746837616,-19.4993357917255,-11.9954900741577,0.992027103900909
784,-8.26614347936582,-12.8611373901367,0.995160758495331,-8.49069846199529,-11.9811172485352,0.995321571826935
785,-10.3948614888115,-12.8361673355103,0.997492909431458,-9.44718720168866,-11.9615144729614,0.997519135475159
786,-10.1227235734483,-12.7769966125488,0.997780859470367,-13.009208883488,-11.942343711853,0.997773587703705
787,-9.5637555132994,-12.7651872634888,0.998003423213959,-20.6282336650719,-11.968240737915,0.998039662837982
788,-8.68779409481163,-12.7579202651978,0.994547009468079,-12.0754034668448,-11.9506816864014,0.994403064250946
789,-13.1840408055735,-12.7591361999512,0.99255496263504,-10.9590312135057,-11.9382095336914,0.992069900035858
790,-13.3384912516016,-12.748067855835,0.984451770782471,-7.35749659755521,-11.8972749710083,0.985340535640717
791,-7.45301112797211,-12.6885662078857,0.998067915439606,-14.0841738950682,-11.8760967254639,0.998051166534424
792,-13.5077425437313,-12.6901903152466,0.9987832903862,-11.3695907527431,-11.8704977035522,0.998766899108887
793,-11.4280886615116,-12.6751384735107,0.998711824417114,-4.16691455828464,-11.8023271560669,0.998684942722321
794,-11.9970872180135,-12.6520805358887,0.999287784099579,-11.9976879340558,-11.7912855148315,0.999242663383484
795,-10.8721859260236,-12.6824445724487,0.998036444187164,-11.9178584736128,-11.7546062469482,0.998062193393707
796,-7.63241954415738,-12.5969123840332,0.343896299600601,-13.567728892604,-11.7715492248535,0.326484739780426
797,-8.88751309208673,-12.5725584030151,0.590567946434021,-12.9166225642697,-11.7882194519043,0.609865307807922
798,-7.33581433682881,-12.5622701644897,0.980872392654419,-5.59880285355562,-11.7993078231812,0.980444550514221
799,-10.3758393332215,-12.5196228027344,0.960471153259277,-10.8971159289662,-11.8181982040405,0.967887818813324
800,-10.4968658152554,-12.5096206665039,0.998295247554779,-11.9970872180135,-11.8282060623169,0.998295605182648
801,-10.4974665312976,-12.4749536514282,0.997631311416626,-8.99697470659996,-11.8163242340088,0.997705936431885
802,-6.55278435278854,-12.3760023117065,0.994154036045074,-12.944302839963,-11.840163230896,0.994224727153778
803,-13.4975790427112,-12.4316129684448,0.998229563236237,-7.49621245996283,-11.8382568359375,0.998235821723938
804,-7.49642300973905,-12.3726778030396,0.998007953166962,-13.4975790427112,-11.8298645019531,0.998039543628693
805,-17.0276117982938,-12.3862047195435,0.996232211589813,-18.9988439670279,-11.8665361404419,0.996239900588989
806,-12.7383470996752,-12.3497247695923,0.990110456943512,-21.4995571944837,-11.9626426696777,0.989609360694885
807,-4.08841511103001,-12.2963314056396,0.994078993797302,-11.9655666479183,-11.9352788925171,0.993930459022522
808,-13.8717195471618,-12.3329410552979,0.998973250389099,-8.57347539733704,-11.9386548995972,0.998964309692383
809,-8.61195208287839,-12.3220329284668,0.948354363441467,-7.55114127206758,-11.8772773742676,0.948212444782257
810,-13.4973086207717,-12.3020219802856,0.998452186584473,-11.9976879340558,-11.8472700119019,0.998491168022156
811,-13.1006687446468,-12.2376956939697,0.998219907283783,-16.5567590249429,-11.8837919235229,0.998240113258362
812,-7.70414392300554,-12.2498188018799,0.983663082122803,-9.7501563622988,-11.877779006958,0.982469797134399
813,-14.9978004454693,-12.2711505889893,0.998055696487427,-16.4980218482275,-11.8979072570801,0.998082756996155
814,-11.4030578075339,-12.2581005096436,0.991134285926819,-9.88489209606231,-11.8421468734741,0.990731179714203
815,-8.74708721801353,-12.246431350708,0.983519375324249,-8.43972520442397,-11.8384504318237,0.981952488422394
816,-14.9984011615116,-12.2664346694946,0.997648894786835,-10.4968658152554,-11.7984409332275,0.997658848762512
817,-8.37509729913717,-12.2459030151367,0.997253596782684,-9.75235485180174,-11.8567771911621,0.997345268726349
818,-7.49642300973905,-12.2258987426758,0.928858995437622,-13.4975790427112,-11.8467693328857,0.933998107910156
819,-15.7077665331413,-12.2145862579346,0.955665469169617,-13.8838365720518,-11.8905010223389,0.955309152603149
820,-19.499065369786,-12.2690343856812,0.998737275600433,-14.9981307395721,-11.8745851516724,0.998692214488983
821,-13.1820881641641,-12.2862892150879,0.996513187885284,-6.91175145944351,-11.8209915161133,0.996683180332184
822,-10.4925365057896,-12.2750444412231,0.998161494731903,-11.9927579085478,-11.8068799972534,0.998208165168762
823,-20.3838164537429,-12.2905654907227,0.293293356895447,-9.95237528715474,-11.7807359695435,0.290915697813034
824,-18.0797154818635,-12.3211145401001,0.998120009899139,-7.81079988604988,-11.7728319168091,0.998173594474792
825,-8.38211416356395,-12.2980690002441,0.998250305652618,-14.6983521423302,-11.762638092041,0.99831235408783
826,-13.4979093368139,-12.2809467315674,0.998238444328308,-19.499065369786,-11.8089179992676,0.998244047164917
827,-13.4973086207717,-12.2967624664307,0.998276352882385,-11.9979583559952,-11.7869567871094,0.998298823833466
828,-13.802946616057,-12.2967119216919,0.997485995292664,-12.4527252132989,-11.7748174667358,0.997592210769653
829,-16.4980218482275,-12.377516746521,0.998717546463013,-11.9979583559952,-11.7912111282349,0.998729407787323
830,-5.85868016124693,-12.3359813690186,0.988110899925232,-18.5119940195736,-11.8436498641968,0.98770809173584
831,-10.4977369532371,-12.3059816360474,0.997953653335571,-7.49155285639436,-11.7836027145386,0.997962713241577
832,-16.4988929862092,-12.2968111038208,0.993767976760864,-10.495861677085,-11.7333717346191,0.994042098522186
833,-13.9214780845885,-12.2996406555176,0.95697408914566,-10.6707648571327,-11.6945209503174,0.962075233459473
834,-11.4790147211325,-12.2924900054932,0.999999523162842,-10.890066199559,-11.6831970214844,0.999999523162842
835,-13.4981797587534,-12.3594245910645,0.99812239408493,-11.9979583559952,-11.6626739501953,0.998238325119019
836,-17.548396473465,-12.4064359664917,0.997392058372498,-14.3502849575292,-11.6683540344238,0.997522175312042
837,-17.7480218482275,-12.457540512085,0.998212575912476,-12.9328821097668,-11.7133445739746,0.998264610767365
838,-9.25121770836816,-12.3898897171021,0.996433138847351,-13.6047111251553,-11.7021160125732,0.99653959274292
839,-10.4707714285398,-12.3532638549805,0.659173548221588,-17.4640266696691,-11.7190284729004,0.683181047439575
840,-3.05862462500851,-12.2736692428589,0.997888624668121,-6.00976161326481,-11.6991195678711,0.99795925617218
841,-15.1694050235298,-12.3012819290161,0.99740594625473,-16.603281055634,-11.6970672607422,0.997499167919159
842,-12.9529236395385,-12.3079814910889,0.993231654167175,-13.1303920135586,-11.7379560470581,0.993432879447937
843,-8.54970575429455,-12.3059358596802,0.999308705329895,-13.9470211407822,-11.765604019165,0.999303340911865
844,-12.9258800493431,-12.2733240127563,0.989545047283173,-12.0877358949786,-11.7688493728638,0.990147769451141
845,-13.8734011615116,-12.2837800979614,0.660849869251251,-8.25947593698605,-11.7796211242676,0.624355018138885
846,-11.3736287475402,-12.2931833267212,0.844197571277618,-8.10282255992426,-11.7717771530151,0.839439511299133
847,-6.33921449844946,-12.2147569656372,0.445570409297943,-14.549654407529,-11.7304439544678,0.466124683618546
848,-5.44489102435948,-12.191593170166,0.995143890380859,-10.3695246640198,-11.7197971343994,0.99541711807251
849,-14.8203189697307,-12.1704015731812,1,-9.72371533131603,-11.6846370697021,1
850,-11.2406085691451,-12.1244592666626,0.867922484874725,-15.4478004454693,-11.6790857315063,0.858913600444794
851,-4.80776906632747,-12.0765295028687,0.582933366298676,-7.74586167708503,-11.6707630157471,0.604795575141907
852,-14.9984011615116,-12.0881967544556,0.997263193130493,-14.9981307395721,-11.7102212905884,0.99735701084137
853,-13.4975790427112,-12.0498533248901,0.998234152793884,-10.4977369532371,-11.6557712554932,0.998266279697418
854,-16.8392504433891,-12.0187845230103,0.732597231864929,-11.6344555832803,-11.6358833312988,0.720118641853333
855,-16.4988929862092,-12.076379776001,0.997713565826416,-16.4988929862092,-11.7112970352173,0.997757017612457
856,-10.1976879340558,-12.0684480667114,0.996005594730377,-18.2488439670279,-11.7197017669678,0.996186435222626
857,-7.18577821960929,-12.0467500686646,0.998056411743164,-15.2475790427112,-11.7560319900513,0.998088777065277
858,-15.0729399070303,-12.0905952453613,0.998256266117096,-6.69177716503149,-11.7262058258057,0.99829238653183
859,-3.65175171359827,-11.985372543335,0.994637310504913,-8.43547952856389,-11.7320919036865,0.994725167751312
860,-4.49543936034376,-11.9053516387939,0.997850775718689,-8.99610356861825,-11.7120847702026,0.997854053974152
861,-16.6129992181694,-11.9299898147583,0.998193800449371,-5.24615258779957,-11.6701021194458,0.998185336589813
862,-14.5415620188734,-11.9412517547607,0.946242988109589,-15.1007448380611,-11.7126770019531,0.948189973831177
863,-13.0964011615116,-11.9391508102417,0.998507082462311,-8.54613209902451,-11.7885541915894,0.99850982427597
864,-3.5836026803824,-11.8878202438354,0.931937992572784,-3.24258716425136,-11.7216234207153,0.916345596313477
865,-11.4294846634515,-11.860541343689,0.998204469680786,-8.51432859732387,-11.7024278640747,0.99821138381958
866,-16.4988929862092,-11.8746328353882,0.998493790626526,-11.9963535017827,-11.707218170166,0.998491406440735
867,-8.83075084544961,-11.819239616394,0.998872220516205,-14.248671583451,-11.6983108520508,0.998888075351715
868,-10.416540366746,-11.8328046798706,0.327113062143326,-16.6673624855464,-11.7338886260986,0.299345523118973
869,-9.71811804158264,-11.8023548126221,0.9981968998909,-13.237918895279,-11.7878904342651,0.998189628124237
870,-6.2474665312976,-11.7340135574341,0.998195469379425,-10.1300408752322,-11.7554397583008,0.998190462589264
871,-7.7879664205828,-11.6935863494873,0.997577965259552,-16.9009344695867,-11.7717256546021,0.997613430023193
872,-14.2858566068229,-11.7188444137573,0.438537210226059,-10.803824806666,-11.8037939071655,0.525227308273315
873,-19.499065369786,-11.7667608261108,0.997350931167603,-13.4975790427112,-11.7896451950073,0.997480452060699
874,-19.499065369786,-11.8207836151123,0.997981905937195,-5.99492704687107,-11.7557983398438,0.997893154621124
875,-14.5820049167844,-11.8936290740967,0.99706906080246,-15.2730218482275,-11.8009386062622,0.997173547744751
876,-4.52328863411328,-11.8253879547119,0.998179197311401,-6.45148801183239,-11.751070022583,0.99821150302887
877,-11.5377164118559,-11.8472356796265,0.819676578044891,-4.72828854633291,-11.7384395599365,0.807748138904572
878,-7.49648288190231,-11.7710103988647,0.998264729976654,-10.495861677085,-11.720555305481,0.998305678367615
879,0.435072090341822,-11.7146348953247,0.999229431152344,-9.61625253208019,-11.6546678543091,0.999321699142456
880,-2.6888946479613,-11.7281112670898,0.998143911361694,-11.9173941956627,-11.677414894104,0.998205304145813
881,-10.7071012203303,-11.679497718811,0.997726857662201,-11.4581053585006,-11.6738195419312,0.997783482074738
882,-9.32106046221585,-11.6216440200806,0.992650806903839,-8.07137990333665,-11.6576499938965,0.992869198322296
883,-2.11624372840573,-11.5456352233887,0.998413801193237,-9.59918278142548,-11.615948677063,0.998464703559875
884,-4.56317560999092,-11.4460849761963,0.998693764209747,-15.7789869367394,-11.6843948364258,0.998626828193665
885,-13.532761351085,-11.464072227478,0.997611880302429,-14.1503303512235,-11.6783609390259,0.997711420059204
886,-14.998671583451,-11.5335388183594,0.984166264533997,-13.4981797587534,-11.681734085083,0.988091588020325
887,-12.7624013273238,-11.5247840881348,0.996581733226776,-15.3072817821468,-11.7358570098877,0.996747732162476
888,-16.1757879186004,-11.5365314483643,0.930478692054749,-16.5778545464477,-11.8281745910645,0.930153429508209
889,-20.4337677207995,-11.5705518722534,0.998570084571838,-6.49750979242825,-11.8199501037598,0.998588025569916
890,-11.4257123766402,-11.5676918029785,0.997595489025116,-14.3836481092726,-11.8576517105103,0.9976447224617
891,-13.3462189744397,-11.5840520858765,0.992555558681488,-21.4017393815556,-11.945725440979,0.991796851158142
892,-5.77968875351982,-11.5475606918335,0.998168110847473,-8.14546571183353,-11.9357795715332,0.998169779777527
893,-11.9984011615116,-11.5556554794312,0.995238542556763,-6.21341232557433,-11.9088830947876,0.994911253452301
894,-8.99591069626635,-11.5284729003906,0.99768602848053,-7.49487802768975,-11.8819808959961,0.997730314731598
895,-4.38465591643207,-11.5170297622681,0.406896352767944,-15.8871076326227,-11.9533920288086,0.405182749032974
896,-14.1978979265886,-11.5477600097656,0.992622494697571,-20.0502818321648,-12.0046138763428,0.99212509393692
897,-1.08158465233574,-11.4395027160645,0.988636076450348,-3.82272133800079,-11.9418830871582,0.988718867301941
898,-12.5158916054508,-11.4729700088501,0.987848401069641,-3.60763602282302,-11.8759489059448,0.986709117889404
899,-14.2171540328012,-11.500696182251,1,-18.8140211064108,-11.8580455780029,1
900,-14.998671583451,-11.5507135391235,0.997764229774475,-14.9984011615116,-11.8880548477173,0.997702658176422
901,-14.7672792806876,-11.5443248748779,0.998132646083832,-17.4991143889674,-11.8886394500732,0.99806934595108
902,-14.996796307299,-11.5933113098145,0.998355329036713,-11.9979583559952,-11.9043102264404,0.998267889022827
903,-10.9028413159517,-11.5759630203247,0.940476775169373,-14.3038632720472,-11.9085092544556,0.952908754348755
904,-14.9978004454693,-11.6025714874268,0.998078227043152,-16.4986225642697,-11.9825029373169,0.997995018959045
905,-11.2471362371948,-11.568998336792,0.997968018054962,-5.5406129529646,-11.8858804702759,0.997902870178223
906,-9.99387951637819,-11.5385808944702,0.99713921546936,-9.14833429584486,-11.8390645980835,0.997044861316681
907,-10.4971961093581,-11.5223207473755,0.99824047088623,-13.4984501806929,-11.8294839859009,0.998177170753479
908,-2.31521113899637,-11.4302310943604,0.60589736700058,0.861345971568507,-11.7288179397583,0.515232443809509
909,-8.86287446308333,-11.4309997558594,0.961386978626251,-11.4094283524461,-11.7455196380615,0.962784886360168
910,-10.1152331490736,-11.3772163391113,0.932938396930695,-11.3422489594554,-11.7672147750854,0.933213114738464
911,-14.1059524072017,-11.3559722900391,0.829913973808289,-20.6343739484104,-11.8054294586182,0.805473268032074
912,-15.8848153163063,-11.367039680481,0.926711797714233,-11.1950521224405,-11.8189888000488,0.923020124435425
913,-13.4091163914302,-11.4296960830688,0.998199164867401,-11.7018344432758,-11.842267036438,0.998080849647522
914,-7.494547733587,-11.4028377532959,0.998482167720795,-7.49365157055894,-11.8249645233154,0.998377561569214
915,-12.9817344948449,-11.3687753677368,0.997869968414307,-9.92149745786528,-11.7979021072388,0.997773110866547
916,-13.6818224958445,-11.4088554382324,0.998580098152161,-16.3593294427308,-11.8034963607788,0.99869978427887
917,-11.602496305516,-11.3512086868286,0.998328745365143,-12.6931303834812,-11.8315887451172,0.998191654682159
918,-8.86471613846087,-11.3112802505493,0.998033344745636,-5.17810224263095,-11.8149137496948,0.997872829437256
919,-12.8377126793415,-11.3547668457031,0.998705983161926,-12.2992791998276,-11.8740215301514,0.998593628406525
920,-13.2095662100552,-11.3272228240967,0.998325169086456,-13.2334587414314,-11.8989229202271,0.99818354845047
921,-8.99577327451549,-11.3072137832642,0.998202562332153,-8.98574967615656,-11.8788433074951,0.998055577278137
922,-7.20892628596646,-11.2763919830322,0.998651921749115,-9.33047320962558,-11.8523044586182,0.998522222042084
923,-8.04509542086832,-11.2870903015137,0.998383760452271,-13.1670389303898,-11.8241539001465,0.998241543769836
924,-13.6815720163515,-11.3083190917969,0.999415636062622,-6.85972285829928,-11.7799005508423,0.999365150928497
925,-8.35036897822155,-11.289008140564,0.998768866062164,-7.10851574141096,-11.7485542297363,0.998654007911682
926,-18.4709852762616,-11.3122005462646,0.930374503135681,-12.9391228109961,-11.7468166351318,0.932886600494385
927,-15.1289644446116,-11.3217658996582,0.998456120491028,-7.95354510465828,-11.7453660964966,0.998312592506409
928,-9.23320916957699,-11.3008337020874,0.998867750167847,-4.171567973512,-11.7201871871948,0.9987633228302
929,-15.3255456411928,-11.3296813964844,0.995878577232361,-8.27261573224098,-11.654764175415,0.99577134847641
930,-10.7766449689978,-11.3215417861938,0.990293264389038,-20.5081778841389,-11.7014970779419,0.989147782325745
931,-5.51316829460585,-11.2643146514893,0.998426198959351,-7.6137724297831,-11.6432971954346,0.998321354389191
932,-9.26883530318325,-11.2501859664917,0.969795405864716,-15.9338102612949,-11.6833915710449,0.96912294626236
933,-7.03792883154081,-11.2055749893188,0.99817943572998,-9.89721208733852,-11.6193780899048,0.998057186603546
934,-11.1253993766546,-11.2246360778809,0.998824775218964,-8.35277379860115,-11.6184587478638,0.998773157596588
935,-9.98339217092215,-11.2218933105469,0.998874366283417,-5.96290079235007,-11.5952291488647,0.998791396617889
936,-15.2777613623473,-11.2562599182129,0.914644181728363,-12.1938326335928,-11.5897941589355,0.919041872024536
937,-14.9978004454693,-11.2924861907959,0.998121917247772,-7.49514844962923,-11.5022401809692,0.997995972633362
938,-12.3887135750814,-11.3171586990356,0.997761368751526,-14.5811337788027,-11.5189456939697,0.997638821601868
939,-0.426797235762989,-11.2321109771729,0.996608257293701,-7.50648119987075,-11.4959278106689,0.996465921401978
940,-15.2141641081422,-11.2446146011353,0.998296558856964,-13.7443490599962,-11.5385065078735,0.998203992843628
941,-7.46998416563317,-11.2447280883789,0.999935626983643,-8.77731727756625,-11.5031280517578,0.999929428100586
942,1.14364737262114,-11.1470527648926,0.966626405715942,-1.03710847503161,-11.4342451095581,0.967268288135529
943,-10.833624408668,-11.1430892944336,0.998207926750183,-11.9119728622017,-11.4858779907227,0.998074650764465
944,-14.7407324498551,-11.1613798141479,0.998087584972382,-8.2364599130391,-11.4608030319214,0.997954726219177
945,-15.5342579072021,-11.1924610137939,0.962143659591675,-10.9010885275654,-11.4540252685547,0.959895253181458
946,-12.4570348491611,-11.2246246337891,0.998371064662933,-5.82783205514879,-11.4024248123169,0.99824994802475
947,-12.3009396398442,-11.2473812103271,0.997928023338318,-10.7996052075711,-11.3883123397827,0.997811496257782
948,-6.35199267551497,-11.2408227920532,0.99810516834259,-5.31222529237955,-11.3864011764526,0.997986674308777
949,-11.9976879340558,-11.2516345977783,0.991806030273438,-11.997357639953,-11.3937368392944,0.991335988044739
950,-8.9957732745155,-11.2416276931763,0.998234152793884,-13.4976389148744,-11.4037399291992,0.998141050338745
951,4.64444164598287,-11.1406812667847,0.989672660827637,-12.7488929862092,-11.4287528991699,0.989350855350494
952,-14.5420584538351,-11.1939430236816,0.997759938240051,-14.0700731856152,-11.43625831604,0.997688412666321
953,-14.2389508879472,-11.1988859176636,0.996946752071381,-16.7488439670279,-11.4979429244995,0.997045934200287
954,-4.76356170573029,-11.1806669235229,0.999408483505249,-9.83227440022117,-11.4735078811646,0.999396324157715
955,-10.4977369532371,-11.1371335983276,0.998204112052917,-10.4971961093581,-11.4168291091919,0.998104453086853
956,-15.3663554877652,-11.1546535491943,0.998309254646301,-1.78985792244711,-11.2854309082031,0.998209834098816
957,-19.4087712866246,-11.2567892074585,0.995996475219727,-15.410090579494,-11.3083953857422,0.996093571186066
958,-16.1936981810144,-11.2722692489624,0.99835216999054,-10.4943219998068,-11.3212013244629,0.998271584510803
959,-7.15448236674021,-11.2625532150269,0.997839272022247,-12.3262577903476,-11.3530359268188,0.997795820236206
960,-7.01036975710405,-11.2193069458008,0.364129781723022,-15.700505889435,-11.377721786499,0.391725242137909
961,-16.4348365560393,-11.2415342330933,0.989071011543274,-8.75954178837046,-11.3257389068604,0.989070534706116
962,-6.39240641886202,-11.2327899932861,0.998411536216736,-6.98902270188449,-11.3073320388794,0.998312592506409
963,-10.4974665312976,-11.202787399292,0.998561680316925,-14.998671583451,-11.2973356246948,0.998476207256317
964,-14.0028854664443,-11.2201194763184,0.994697570800781,-13.3759824493364,-11.3206100463867,0.994885265827179
965,-11.9835273444866,-11.2416963577271,0.540352046489716,-1.86142107132006,-11.2767543792725,0.604649007320404
966,-10.4968658152554,-11.2116851806641,0.998160541057587,-10.4943647980147,-11.2767381668091,0.998077750205994
967,-9.96158685102327,-11.2222623825073,0.998187124729156,-10.5225267869812,-11.2818717956543,0.998091161251068
968,-9.26604801248876,-11.2340602874756,0.985793650150299,-7.9357944955715,-11.2447929382324,0.987513363361359
969,-11.1748206853943,-11.2038402557373,0.436806470155716,-14.9573381755221,-11.2519502639771,0.546322703361511
970,-19.4467042127781,-11.2034902572632,0.998187959194183,-8.93216888231103,-11.2115106582642,0.998089969158173
971,-16.9980218482275,-11.2289304733276,0.998251020908356,-18.2491143889674,-11.2870922088623,0.998161733150482
972,-0.587731349692134,-11.162899017334,0.998378872871399,-12.7022433629937,-11.291823387146,0.99828964471817
973,-14.1079074184101,-11.1210594177246,0.981537342071533,-8.0386542707612,-11.2790641784668,0.980311632156372
974,-6.87078157349611,-11.0463333129883,0.996249496936798,-19.4232359858998,-11.356481552124,0.996215045452118
975,-6.58243385155903,-11.0343351364136,0.52927303314209,-9.00825470457078,-11.318546295166,0.563289046287537
976,-8.99637399055772,-11.0043249130249,0.994932472705841,-8.9966444124972,-11.2485303878784,0.995009183883667
977,-9.61784297281545,-10.9784622192383,0.997991561889648,-8.31696355121858,-11.2239904403687,0.997916519641876
978,-9.9581133660793,-10.9528293609619,0.995854794979095,-8.25620779003886,-11.1960144042969,0.99565601348877
979,-5.38199490559041,-10.8787221908569,0.995032787322998,-12.3903366214985,-11.1986293792725,0.994900703430176
980,-12.8287966793485,-10.9251899719238,0.992152392864227,-12.078526257409,-11.155740737915,0.992884516716003
981,-7.13898715413423,-10.9027976989746,0.998584508895874,-4.88792314380064,-11.1383819580078,0.998543977737427
982,-18.0688246096169,-10.9132642745972,0.998107671737671,-15.6309035263476,-11.1726160049438,0.99806410074234
983,-6.83607026886098,-10.8660278320312,0.99606591463089,-16.7025042194758,-11.2128267288208,0.996155560016632
984,-9.95795835599524,-10.8558874130249,0.99821400642395,-13.9744011615116,-11.2333898544312,0.998135089874268
985,-6.83110750345325,-10.8114414215088,0.527901828289032,-8.84791629917089,-11.2123889923096,0.501054883003235
986,-6.87894366689986,-10.7403116226196,0.998166501522064,-12.9792392743714,-11.2032489776611,0.99810791015625
987,-7.93122319176919,-10.6748657226562,0.998571872711182,-8.82506886938967,-11.1758642196655,0.998530745506287
988,-3.20056797042391,-10.6345281600952,0.998815298080444,-6.78122005934194,-11.1303739547729,0.998795032501221
989,-11.9979583559952,-10.6447095870972,0.99679571390152,-10.4965953933159,-11.0839242935181,0.996775448322296
990,-11.9974175121163,-10.7043018341064,0.998393714427948,-14.998671583451,-11.1438512802124,0.998418569564819
991,-5.65225577067438,-10.6408548355103,0.997637987136841,-11.1234415704092,-11.1073179244995,0.997570812702179
992,-13.1530380583485,-10.6421880722046,0.998170614242554,-13.917699923532,-11.112566947937,0.998107552528381
993,-17.2895074020678,-10.7004537582397,0.998233199119568,-10.6040741175768,-11.0902805328369,0.998161375522614
994,-12.3438587710991,-10.6965732574463,0.996528804302216,-7.23481522659653,-11.0579280853271,0.996323466300964
995,-8.99724512853944,-10.6640653610229,0.998329818248749,-11.9970872180135,-11.0828456878662,0.998300492763519
996,-6.4981797587534,-10.6315622329712,0.365873485803604,-11.9079348761188,-11.1082124710083,0.373342603445053
997,-15.7475300235298,-10.6942844390869,0.984755218029022,-10.9283122672168,-11.0840702056885,0.983110308647156
998,-18.9991143889674,-10.784646987915,0.998091757297516,-7.95728795986903,-11.0679883956909,0.998000085353851
999,-10.6365292733165,-10.7567548751831,0.99847811460495,-4.64773056543264,-11.0341491699219,0.998402178287506
1000,-9.7492810803393,-10.7468118667603,0.991209745407104,-9.85060266624238,-10.9968347549438,0.990758299827576
1001,-13.4984501806929,-10.8047504425049,0.998880088329315,-14.9975300235298,-11.0451784133911,0.998962759971619
1002,-10.723048314753,-10.7762479782104,0.994069993495941,-11.8308111338107,-11.0240621566772,0.994194209575653
1003,-9.50584479132647,-10.7496366500854,0.998151838779449,-8.4143621414842,-11.0101737976074,0.998103022575378
1004,-8.99414339525658,-10.6973352432251,0.998571991920471,-13.4975790427112,-11.0225954055786,0.998536586761475
1005,-17.9991143889674,-10.7073364257812,0.998026907444,-8.98948130582279,-10.9725313186646,0.997953772544861
1006,-5.87433220293939,-10.6785135269165,0.997562408447266,-20.674930328812,-10.9887056350708,0.997560143470764
1007,-11.9131477052904,-10.7100305557251,0.998078584671021,1.55066407774004,-10.8767175674438,0.998013973236084
1008,-10.3309761102,-10.6784172058105,0.998138904571533,-6.59791026328102,-10.8760919570923,0.998073220252991
1009,-10.4971961093581,-10.7240524291992,0.998242616653442,-11.9979583559952,-10.8998413085938,0.998182058334351
1010,-9.40501123490004,-10.7567834854126,0.959944665431976,-14.9981307395721,-10.9398555755615,0.980940282344818
1011,-12.8312426701472,-10.7315711975098,0.901004135608673,-14.9384373790845,-11.004469871521,0.868616044521332
1012,-13.2415984404231,-10.7229051589966,0.987200617790222,-5.68937298010641,-10.9417276382446,0.98740953207016
1013,-13.9337857768962,-10.7284879684448,0.664856851100922,-9.95813073957208,-10.9511413574219,0.658137738704681
1014,-13.3481307395721,-10.7935848236084,0.998184382915497,-8.1724665312976,-10.9840068817139,0.998135566711426
1015,-7.87414641372405,-10.7698831558228,0.992853581905365,-11.0086052431442,-11.0006351470947,0.992262840270996
1016,-3.77981348100358,-10.6850891113281,0.995336472988129,-7.41811911884217,-10.9701137542725,0.995143175125122
1017,-14.5808143450916,-10.7234220504761,0.998143076896667,-5.84960554128276,-10.9141206741333,0.998056709766388
1018,-6.66345933284048,-10.6984014511108,0.998197734355927,-16.490615805398,-10.9129419326782,0.998123347759247
1019,-5.65684219433798,-10.6713266372681,0.997359693050385,-8.64257880243886,-10.882306098938,0.997330904006958
1020,-7.89070423929012,-10.6822814941406,0.885111212730408,-12.3173286949236,-10.8968877792358,0.890825510025024
1021,-13.4979093368139,-10.7203483581543,0.991690397262573,-10.4971961093581,-10.8541965484619,0.991126239299774
1022,-11.1501087307173,-10.6994438171387,0.998140335083008,-6.87831308970449,-10.8280267715454,0.998074889183044
1023,-12.3196118412796,-10.6515808105469,0.998323619365692,-14.2899337193734,-10.833309173584,0.998271584510803
1024,-7.83929785399662,-10.5738487243652,0.990382730960846,-15.1223337621867,-10.8941583633423,0.990870177745819
1025,-6.79135698043492,-10.5219106674194,0.515324234962463,-14.0934583133089,-10.8862943649292,0.545043647289276
1026,-9.61668744060301,-10.5558671951294,0.572095036506653,0.709955951819911,-10.8385515213013,0.608271241188049
1027,-12.4838567686362,-10.5621747970581,0.994923949241638,-8.59871766710722,-10.8643550872803,0.994657337665558
1028,-8.41287967446874,-10.568284034729,0.999080896377563,-8.26281958210644,-10.8494682312012,0.999024868011475
1029,-8.52130835159224,-10.6279926300049,0.997433483600616,-8.68277738720705,-10.843243598938,0.997394204139709
1030,-5.66269903235952,-10.6478185653687,0.998404204845428,-9.91485775618219,-10.8298940658569,0.998350977897644
1031,-13.5514314645419,-10.6667795181274,0.994405746459961,-15.2056932713404,-10.8548774719238,0.994221389293671
1032,-4.99253026215551,-10.6379232406616,0.998288929462433,-16.6386225642697,-10.9119930267334,0.998220860958099
1033,-13.4981797587534,-10.7138023376465,0.98653119802475,-13.4981797587534,-10.9379863739014,0.9871746301651
1034,-9.63893968597566,-10.7476415634155,0.340598225593567,-17.5982110556355,-10.9501152038574,0.322909951210022
1035,-14.5539567170671,-10.7544498443604,0.997511982917786,-7.89131025969981,-10.9083881378174,0.997576653957367
1036,-15.8274339337788,-10.7599744796753,0.99825245141983,-6.68347060031651,-10.8629570007324,0.998155534267426
1037,-16.5810848411552,-10.7854318618774,0.996819972991943,-11.9653526022925,-10.8406772613525,0.996735274791718
1038,-6.3734827914602,-10.7200841903687,0.997910678386688,-7.71334135188178,-10.7815799713135,0.997807919979095
1039,-7.49642300973905,-10.6338348388672,0.993008375167847,-13.4973086207717,-10.8282451629639,0.992448687553406
1040,-5.58644958214505,-10.5949058532715,0.99835193157196,-12.1763672632065,-10.8135299682617,0.998435437679291
1041,-10.4968658152554,-10.575909614563,0.998786628246307,-10.495861677085,-10.7408246994019,0.998794317245483
1042,-7.84381761553811,-10.5896711349487,0.979581296443939,-13.1925751840165,-10.7744722366333,0.979768574237823
1043,-2.19872374719155,-10.524338722229,0.992516219615936,-16.0446808914304,-10.8400135040283,0.99451208114624
1044,-6.43119298599347,-10.5072412490845,0.999982357025146,-13.6313620893049,-10.8809232711792,0.999965786933899
1045,-8.00132450614912,-10.5313529968262,0.968600928783417,-10.2481797587534,-10.8433313369751,0.969013810157776
1046,-13.4973086207717,-10.5266819000244,0.998172163963318,-7.49514844962923,-10.7596292495728,0.998080253601074
1047,-14.6138332189109,-10.6168966293335,0.998135328292847,-3.4392544343177,-10.7570724487305,0.998073101043701
1048,-11.5078458953776,-10.6101770401001,0.999027609825134,-10.8088500135665,-10.8050804138184,0.999033689498901
1049,-9.1570409993827,-10.5764427185059,0.994925379753113,-12.7267452524828,-10.7644996643066,0.994900166988373
1050,-4.94145113712313,-10.5093946456909,0.998306393623352,-11.2911474575256,-10.7397842407227,0.998293101787567
1051,-12.1773912282874,-10.4921283721924,0.995813429355621,-8.21570029147911,-10.6778945922852,0.995790421962738
1052,-10.7357142148627,-10.4637212753296,0.99773383140564,-7.14732133850173,-10.6455564498901,0.997629880905151
1053,3.42545976542784,-10.3681993484497,0.998199164867401,-8.92866104217586,-10.6097221374512,0.998113393783569
1054,-11.2388855905773,-10.3431396484375,0.999584853649139,-13.8247471317438,-10.5918960571289,0.99953031539917
1055,-16.0107037929409,-10.3748970031738,0.99844092130661,-11.9939973624935,-10.6349182128906,0.998356759548187
1056,-6.24451471807668,-10.3499002456665,0.870942831039429,-14.6869807605039,-10.6718425750732,0.891043424606323
1057,-10.148090056056,-10.3475751876831,0.998962998390198,-10.4224221829958,-10.6513366699219,0.99891185760498
1058,-10.3014635164048,-10.4008150100708,0.995769023895264,-6.70696622430064,-10.7017908096313,0.995768070220947
1059,-15.5192792523036,-10.4451923370361,0.995901048183441,-6.40888298263734,-10.6684541702271,0.995229125022888
1060,-2.45201540067228,-10.3941030502319,0.99928230047226,4.86034149040355,-10.5604381561279,0.999192893505096
1061,-5.24000441670742,-10.334997177124,0.99902069568634,-11.657581045174,-10.5005922317505,0.998788058757782
1062,-7.67466845371511,-10.2802629470825,0.998238325119019,-4.37933154966768,-10.4551544189453,0.998134195804596
1063,-1.59126510633905,-10.2014770507812,0.998208522796631,-11.3077035682772,-10.4525270462036,0.99808132648468
1064,-16.0843099196936,-10.2587423324585,0.9981649518013,-13.8067899574492,-10.4946146011353,0.998041391372681
1065,-8.99724512853944,-10.2321796417236,0.997753202915192,-14.9984011615116,-10.5284605026245,0.997684478759766
1066,-10.0967435754018,-10.2082786560059,0.994948029518127,-6.50853805628523,-10.4627876281738,0.994773805141449
1067,-14.9822231100722,-10.2308101654053,0.68297415971756,-11.8405423809532,-10.4571046829224,0.669578790664673
1068,-16.4988929862092,-10.2817049026489,0.99880588054657,-10.4955912551456,-10.4925537109375,0.998699426651001
1069,-14.2681587516583,-10.2912406921387,0.790548026561737,-5.1264045147802,-10.4447345733643,0.77362072467804
1070,-11.7099853194189,-10.2812442779541,0.805454552173615,-9.83458463447439,-10.4220752716064,0.7982057929039
1071,-15.4904526296292,-10.3245420455933,0.979000985622406,-5.88112316529942,-10.4013786315918,0.978547215461731
1072,-18.2024217819635,-10.3978309631348,0.994906306266785,-6.13934961073209,-10.3801040649414,0.994500279426575
1073,-14.0064350642697,-10.4375743865967,0.973193407058716,3.5357074902302,-10.2687520980835,0.960506796836853
1074,-17.0332758796506,-10.4599189758301,0.998867630958557,-7.4130464539848,-10.2724409103394,0.998734414577484
1075,-7.30858536995319,-10.4529733657837,0.998026907444,-8.36997463054827,-10.2808504104614,0.997827708721161
1076,-4.85637852936043,-10.3622093200684,0.993949174880981,-16.0293157312492,-10.3014516830444,0.993564426898956
1077,-10.6029996776823,-10.3320360183716,0.992322623729706,-13.9164996324612,-10.3412055969238,0.99179595708847
1078,-10.4965953933159,-10.3404588699341,0.993578433990479,-5.99492704687107,-10.3533611297607,0.993252098560333
1079,-11.9979583559952,-10.3182744979858,0.998293697834015,-10.4968658152554,-10.3681888580322,0.99813711643219
