EpisodeIndex,DQNEpisodeReward,DQNAverageReward,DQNEpisodeQ0,DDQNEpisodeReward,DDQNAverageReward,DDQNEpisodeQ0
1,-24,-24,0.998028576374054,-9.87329689469549,-9.8732967376709,0.998028576374054
2,-15.5279305883443,-19.7639656066895,0.983249187469482,-20.0922363222095,-14.9827661514282,0.985140323638916
3,-19.4993357917255,-19.6757564544678,0.991583824157715,-19.4993357917255,-16.4882888793945,0.993742525577545
4,-10.0249381685393,-17.2630519866943,0.994684278964996,-15.4524783033404,-16.2293357849121,0.995970368385315
5,-14.6054790381179,-16.731538772583,0.991982281208038,-18.9047704646259,-16.7644233703613,0.994220018386841
6,-19.5104742250514,-17.194694519043,0.994131743907928,-9.73862485318196,-15.5934562683105,0.995696663856506
7,-14.0891983188157,-16.7510509490967,0.995550274848938,-14.937349683085,-15.4997262954712,0.996365308761597
8,-18.2901083239144,-16.9434337615967,0.997334361076355,-12.7971272288305,-15.161901473999,0.997626721858978
9,-16.4986225642697,-16.8940105438232,0.997491598129272,-16.4986225642697,-15.3104267120361,0.997572600841522
10,-21.4995571944837,-17.354564666748,0.99742990732193,-14.790520817029,-15.2584362030029,0.997412383556366
11,-11.9976879340558,-16.8675765991211,0.996996641159058,-11.9963535017827,-14.9618835449219,0.996845006942749
12,-10.2479093368139,-16.3159370422363,0.411968499422073,-17.8077665259504,-15.1990404129028,0.535478711128235
13,-20.2950117399382,-16.6220207214355,0.994333148002625,-21.4995571944837,-15.6836948394775,0.9963259100914
14,-8.38998303744192,-16.0340175628662,0.99727874994278,-10.0041388664296,-15.2780132293701,0.997248589992523
15,-8.83664224460817,-15.5541925430298,0.994623303413391,-14.5202866833971,-15.2274971008301,0.994627177715302
16,-18.9418648867914,-15.7659215927124,0.997078537940979,-15.7905106336945,-15.2626857757568,0.997431695461273
17,-18.3975505055205,-15.9207229614258,0.996650516986847,-17.0902024935319,-15.3701868057251,0.997030258178711
18,-13.0173725642697,-15.7594261169434,0.974903166294098,-20.2493357917255,-15.6412506103516,0.983614444732666
19,-19.4993357917255,-15.9562635421753,0.995649993419647,-19.499065369786,-15.844292640686,0.997296988964081
20,-16.5957327464553,-15.9882373809814,0.996960580348969,-8.80311678680683,-15.4922351837158,0.997739791870117
21,-21.8937878138317,-16.2694549560547,0.988698542118073,-18.7230594986311,-15.6460828781128,0.993074297904968
22,-13.5583255699242,-16.1462211608887,0.997414469718933,-9.09418921220269,-15.3482704162598,0.997803866863251
23,-17.9792361238906,-16.2259178161621,0.990691721439362,-13.8611462595508,-15.2836132049561,0.992721021175385
24,-10.8724401318373,-16.0028553009033,0.997107565402985,-11.167401273502,-15.1121034622192,0.997697293758392
25,-14.998671583451,-15.9626893997192,0.979005634784698,-20.9995571944837,-15.3476028442383,0.991202592849731
26,-14.6908854895192,-15.9137725830078,0.99514502286911,-13.8241525017801,-15.289008140564,0.996263563632965
27,-20.1681618456465,-16.0713424682617,0.995813071727753,-12.7832848824418,-15.1962032318115,0.997803151607513
28,-14.9984011615116,-16.0330238342285,0.989457845687866,-14.9984011615116,-15.1891393661499,0.993980646133423
29,-16.0803661827942,-16.0346546173096,0.996710896492004,-18.7673580527129,-15.3125267028809,0.997693955898285
30,-17.7841616623723,-16.0929737091064,0.317683666944504,-14.0332270321583,-15.2698831558228,0.34952574968338
31,-16.1264435815139,-16.0940532684326,0.996800422668457,-20.5259547100116,-15.4394330978394,0.997825026512146
32,-20.1032986910823,-16.2193412780762,0.991476118564606,-17.006138512814,-15.488392829895,0.995319306850433
33,-12.1371692360332,-16.0956401824951,0.980445802211761,-14.0922978751266,-15.4460868835449,0.986690402030945
34,-22.7497785972418,-16.2913494110107,0.997093200683594,-18.9988439670279,-15.5505800247192,0.99688309431076
35,-15.342080508195,-16.2642288208008,0.996780157089233,-11.5888094293829,-15.4373865127563,0.998349905014038
36,-21.6351169431065,-16.4134178161621,0.994953036308289,-9.1072513343257,-15.2615489959717,0.997892081737518
37,-16.4988929862092,-16.4157295227051,0.996135711669922,-19.4993357917255,-15.3760833740234,0.998327910900116
38,-22.4997785972418,-16.5758380889893,0.997587203979492,-10.4971961093581,-15.2476921081543,0.998497605323792
39,-18.6193357917255,-16.6282329559326,0.997380793094635,-14.1055106336945,-15.2184057235718,0.998333156108856
40,-15.3402171871224,-16.5960330963135,0.997768402099609,-15.8803439085988,-15.2349529266357,0.998574614524841
41,-13.5120634244848,-16.5208148956299,0.99843043088913,-16.7679315932684,-15.2723436355591,0.999238252639771
42,-12.1042212673317,-16.4156589508057,0.999160289764404,-20.1966471415736,-15.3895893096924,0.999335706233978
43,-17.5350500774398,-16.4416904449463,0.997268199920654,-18.0707643631541,-15.4519424438477,0.998697102069855
44,-14.233836013298,-16.3915119171143,0.989277958869934,-14.4958885825157,-15.430214881897,0.994133770465851
45,-19.0620888281628,-16.4508590698242,0.99696546792984,-10.6168712333245,-15.3232507705688,0.998526215553284
46,-11.2926722403411,-16.3387241363525,0.997861921787262,-13.4862938761468,-15.283317565918,0.999262392520905
47,-12.8380425957745,-16.2642421722412,0.997949779033661,-24,-15.4687786102295,0.999145030975342
48,-20.4476704020308,-16.3513965606689,0.997802078723907,-14.7637451186677,-15.4540901184082,0.999039053916931
49,-15.378458018311,-16.3315410614014,0.940263390541077,-15.7618656558437,-15.4603719711304,0.987009763717651
50,-19.4625201574466,-16.3941593170166,0.995197117328644,-13.8965493096597,-15.4290943145752,0.998401463031769
51,-12.4211810842915,-16.3162574768066,0.99802041053772,-17.8265558689456,-15.4761037826538,0.999408483505249
52,-15.9960349782638,-16.3101005554199,0.915317237377167,-15.8666000923596,-15.4836130142212,0.984358668327332
53,-18.2491143889674,-16.3466835021973,0.987996280193329,-11.7410482203351,-15.4129981994629,0.997689485549927
54,-18.4590166539431,-16.3858032226562,0.997751891613007,-16.4693356400563,-15.432559967041,0.999493479728699
55,-15.1458086038434,-16.3632564544678,0.996812403202057,-20.5594745498556,-15.5257768630981,0.998898386955261
56,-19.4993357917255,-16.4192600250244,0.996075689792633,-20.9995571944837,-15.6235227584839,0.99889612197876
57,-20.2493357917255,-16.4864540100098,0.944779753684998,-15.033652344498,-15.6131744384766,0.897659182548523
58,-20.2547118336589,-16.5514240264893,0.987395405769348,-11.0072626487431,-15.5337619781494,0.996566653251648
59,-18.0803702744841,-16.5773372650146,0.976894080638885,-17.9939419751743,-15.57546043396,0.996571063995361
60,-22.7497785972418,-16.680212020874,0.988658130168915,-16.2918917950389,-15.5874004364014,0.997683167457581
61,-16.0697394894159,-16.670202255249,0.99072003364563,-17.528965135236,-15.6192293167114,0.998414993286133
62,-15.900359118543,-16.6577854156494,0.863923311233521,-2.64592896871121,-15.4099817276001,0.966586172580719
63,-18.9991143889674,-16.6949520111084,0.990814745426178,-11.2961922446081,-15.3446846008301,0.997887313365936
64,-21.4995571944837,-16.7700233459473,0.996420383453369,-21.9906876881509,-15.4485282897949,0.998888790607452
65,-13.522829156422,-16.7200660705566,0.995596826076508,-16.4621017491723,-15.4641208648682,0.998740136623383
66,-16.0923399019872,-16.7105560302734,0.996243476867676,-21.4995571944837,-15.555567741394,0.99891984462738
67,-10.9525659828362,-16.6246147155762,0.966430246829987,-17.4539924377478,-15.5839023590088,0.99089241027832
68,-11.2491799777109,-16.5455646514893,0.99694699048996,-16.1218969265294,-15.591814994812,0.998986661434174
69,-17.4566901465431,-16.5587711334229,0.954398989677429,-10.3869037681827,-15.5163803100586,0.990856647491455
70,-16.2230906493761,-16.5539741516113,0.957754731178284,-14.5457014968475,-15.5025148391724,0.988282740116119
71,-17.9991143889674,-16.5743293762207,0.992243111133575,-17.9988439670279,-15.537672996521,0.997426331043243
72,-14.0627964340155,-16.5394458770752,0.995724201202393,-11.1713305555945,-15.4770288467407,0.998550474643707
73,-18.2491143889674,-16.5628662109375,0.567003607749939,-15.4818627877334,-15.4770946502686,0.454626083374023
74,-17.3334055767068,-16.573278427124,0.998254835605621,-16.7289994464386,-15.4940118789673,0.999536633491516
75,-3.80183187094752,-16.4029922485352,0.635121405124664,-15.50926956656,-15.494215965271,0.686962306499481
76,-11.2678426801017,-16.3354244232178,0.991794288158417,-17.7434964114393,-15.523811340332,0.996644258499146
77,-9.21871897486619,-16.2430000305176,0.995222747325897,-12.0711436255954,-15.4789724349976,0.998233199119568
78,-22.7497785972418,-16.3264198303223,0.843683540821075,-11.1099821434864,-15.4229593276978,0.939650774002075
79,-13.784336849984,-16.2942428588867,0.991173446178436,-17.273145315535,-15.4463806152344,0.997098088264465
80,-9.44310374665049,-16.2086029052734,0.997721493244171,-15.8526665711149,-15.4514589309692,0.999214291572571
81,-17.4082642568829,-16.2234134674072,0.96178150177002,-16.793529957366,-15.4680261611938,0.983661234378815
82,-15.3001689560223,-16.2121543884277,0.999634623527527,-15.3491380281872,-15.4665784835815,0.999838709831238
83,-16.4988929862092,-16.215612411499,0.997230350971222,-16.4988929862092,-15.4790153503418,0.999125301837921
84,-13.4975790427112,-16.1832542419434,0.997490048408508,-20.9995571944837,-15.5447359085083,0.999214887619019
85,-19.9279609503522,-16.2273082733154,0.997358024120331,-10.124448497436,-15.4809684753418,0.999211430549622
86,-16.9789942487594,-16.236047744751,0.553263247013092,-17.1844726444191,-15.5007753372192,0.78023886680603
87,-10.8629887018933,-16.1742877960205,0.998320996761322,-16.8763199187096,-15.5165872573853,0.999577581882477
88,-19.3917140572288,-16.2108497619629,0.996354699134827,-17.8317474421886,-15.5428953170776,0.998997151851654
89,-17.0659160084006,-16.2204570770264,0.995415449142456,-20.6442940365889,-15.6002140045166,0.998742759227753
90,-16.4988929862092,-16.2235527038574,0.997402369976044,-19.4993357917255,-15.6435375213623,0.999330282211304
91,-17.6065727618519,-16.238748550415,0.962243497371674,-5.17962854179055,-15.5285501480103,0.989778459072113
92,-16.7766217448057,-16.2445964813232,0.996568918228149,-17.1194847593377,-15.5458431243896,0.999154925346375
93,-17.3912196521253,-16.2569255828857,0.970161914825439,-14.8354646695329,-15.5382041931152,0.9961918592453
94,-20.2493357917255,-16.2993984222412,0.99724018573761,-14.986082546801,-15.5323305130005,0.999274075031281
95,-10.0264816455459,-16.2333679199219,0.997100532054901,-15.5316414321942,-15.532322883606,0.999248564243317
96,-17.7493357917255,-16.2491588592529,0.985204339027405,-20.1268578079806,-15.5801820755005,0.993756294250488
97,-13.9267750569383,-16.2252159118652,0.396297961473465,-17.3375536444472,-15.5983009338379,0.688807904720306
98,-16.4986225642697,-16.228006362915,0.994300127029419,-19.4993357917255,-15.6381063461304,0.998424530029297
99,-14.4709669833196,-16.2102584838867,0.997114062309265,-18.1643087352571,-15.6636238098145,0.999234795570374
100,-11.6526022842875,-16.164680480957,0.997737765312195,-22.7497785972418,-15.7344846725464,0.999499320983887
101,-15.3674349996544,-16.1567878723145,0.997034788131714,-20.2113892555524,-15.7788114547729,0.999292969703674
102,-17.9991143889674,-16.1748504638672,0.996362149715424,-11.9976879340558,-15.7417421340942,0.99924373626709
103,-17.6713216073284,-16.1893787384033,0.996720254421234,-20.1396281164695,-15.7844400405884,0.9992555975914
104,-14.1953928949264,-16.1702079772949,0.996827185153961,-14.3218438058813,-15.7703762054443,0.999420046806335
105,-19.4993357917255,-16.2019119262695,0.995721459388733,-10.4974665312976,-15.720157623291,0.999266922473907
106,-19.4993357917255,-16.2330207824707,0.995670080184937,-14.9984011615116,-15.7133493423462,0.998885571956635
107,-14.3390971153659,-16.2153205871582,0.982426524162292,-10.2475790427112,-15.6622667312622,0.997031807899475
108,-21.9745260719893,-16.2686462402344,0.990594625473022,-13.9807243938348,-15.6466970443726,0.998736321926117
109,-10.8514364170836,-16.2189464569092,0.99686336517334,-20.4681719130984,-15.6909303665161,0.999294638633728
110,-13.0941291930386,-16.1905403137207,0.996889412403107,-17.122792581849,-15.7039470672607,0.99923312664032
111,-10.8282796411358,-16.1422309875488,0.293662637472153,-19.4993357917255,-15.7381401062012,0.265542447566986
112,-20.2493357917255,-16.1789016723633,0.995938658714294,-19.194457742945,-15.7690000534058,0.998815059661865
113,-19.7840399531044,-16.2108058929443,0.99682754278183,-22.7497785972418,-15.8307771682739,0.999133050441742
114,-20.1986800015012,-16.2457866668701,0.577239692211151,-8.66813984959247,-15.7679471969604,0.652593791484833
115,-18.5382810560605,-16.2657203674316,0.976846992969513,-13.9297246913498,-15.7519626617432,0.994357526302338
116,-15.4235329936185,-16.2584590911865,0.993350684642792,-14.8421376447813,-15.744119644165,0.997829973697662
117,-15.4572556577949,-16.2516117095947,0.997683167457581,-11.4984011615116,-15.7078313827515,0.99921441078186
118,-16.4988929862092,-16.2537078857422,0.997210919857025,-20.9995571944837,-15.7526760101318,0.999103724956512
119,-13.7003769502346,-16.2322521209717,0.998060882091522,-11.5451847872426,-15.7173185348511,0.999400019645691
120,-14.3551974750208,-16.216609954834,0.997427046298981,-10.8905639739934,-15.677095413208,0.999149441719055
121,-18.9156926690489,-16.2389163970947,0.979614794254303,-12.3301855481287,-15.649435043335,0.993458449840546
122,-14.998671583451,-16.2287502288818,0.997141003608704,-17.9991143889674,-15.6686954498291,0.999333441257477
123,-14.7299760424996,-16.2165641784668,0.988779544830322,-11.4818557722709,-15.6346549987793,0.987053573131561
124,-16.4986225642697,-16.2188396453857,0.996278822422028,-16.4986225642697,-15.6416234970093,0.998207926750183
125,-12.2028975968757,-16.1867122650146,0.996453285217285,-19.8768299217564,-15.6755056381226,0.998798966407776
126,-17.9991143889674,-16.2010955810547,0.991734981536865,-13.4979093368139,-15.6582221984863,0.995450913906097
127,-21.9354009148384,-16.2462482452393,0.999973654747009,-14.0050603325101,-15.645206451416,0.999988079071045
128,-19.4993357917255,-16.2716617584229,0.995863437652588,-16.4986225642697,-15.651873588562,0.998961448669434
129,-11.9717739425766,-16.2383308410645,0.996745347976685,-17.4988439670279,-15.6661911010742,0.99916934967041
130,-13.6005643118425,-16.2180404663086,0.995599985122681,-13.4090871609665,-15.6488285064697,0.998995363712311
131,-20.0669484988315,-16.2474212646484,0.996728897094727,-9.85448009512567,-15.6045961380005,0.999257266521454
132,-17.9991143889674,-16.2606906890869,0.996470928192139,-17.9991143889674,-15.6227359771729,0.999228358268738
133,-14.6855392459978,-16.2488479614258,0.996590614318848,-22.7497785972418,-15.6763229370117,0.999252378940582
134,-19.4993357917255,-16.2731056213379,0.996630966663361,-19.4993357917255,-15.7048540115356,0.999268352985382
135,-22.4997785972418,-16.3192272186279,0.996982276439667,-13.4979093368139,-15.6885051727295,0.999321579933167
136,-17.4988439670279,-16.32790184021,0.996292650699615,-21.4995571944837,-15.7312335968018,0.999171733856201
137,-15.5794369192636,-16.3224391937256,0.995571196079254,-15.3323045726379,-15.7283229827881,0.999083399772644
138,-14.0105273261745,-16.305685043335,0.996663391590118,-18.6424143373408,-15.7494373321533,0.999229192733765
139,-15.8654517408795,-16.3025188446045,0.999626636505127,-13.3460661310855,-15.7321481704712,0.993339478969574
140,-12.1343054132037,-16.2727451324463,0.996316432952881,-9.61832818498145,-15.6884784698486,0.999104201793671
141,-16.8158495531934,-16.2765979766846,0.996826827526093,-16.4210261256034,-15.6936740875244,0.999159574508667
142,-14.595847935184,-16.2647609710693,0.996696472167969,-10.255426135565,-15.6553764343262,0.999074578285217
143,-15.1886520223538,-16.2572345733643,0.327197730541229,-20.7495571944837,-15.6909999847412,0.789541661739349
144,-16.4986225642697,-16.2589111328125,0.994298279285431,-16.4986225642697,-15.6966075897217,0.994696736335754
145,-11.7129412997057,-16.227560043335,0.501379430294037,-18.9233864246369,-15.718861579895,0.730454862117767
146,-17.9988439670279,-16.2396926879883,0.997016191482544,-13.4981797587534,-15.7036514282227,0.99912291765213
147,-20.7495571944837,-16.2703723907471,0.996602177619934,-9.88916494219508,-15.6640977859497,0.998980939388275
148,-18.0548141162816,-16.2824287414551,0.996564447879791,-18.5020447566727,-15.6832733154297,0.998955130577087
149,-20.9995571944837,-16.3140869140625,0.997116327285767,-16.4988929862092,-15.6887454986572,0.999166488647461
150,-19.854034806424,-16.3376846313477,0.991523742675781,-5.99950461779908,-15.6241502761841,0.997935175895691
151,-15.8185899559062,-16.2831439971924,0.99717903137207,-16.8107437763909,-15.6704006195068,0.99920266866684
152,-21.4992867725442,-16.3229522705078,0.996985614299774,-16.2313548261258,-15.6446619033813,0.99912029504776
153,-19.6541026490291,-16.3239841461182,0.66347062587738,-15.5309325707855,-15.6182060241699,0.831354677677155
154,-14.9984011615116,-16.357141494751,0.996325671672821,-13.4981797587534,-15.6051778793335,0.998908400535583
155,-13.9899961890562,-16.3530387878418,0.997086584568024,-18.1850574494656,-15.6003789901733,0.999121725559235
156,-13.5875802808565,-16.3135528564453,0.997050285339355,-17.2745651495237,-15.6506185531616,0.999110758304596
157,-8.79396221801353,-16.2782516479492,0.991507291793823,-8.56045835599524,-15.6081056594849,0.995856583118439
158,-13.4984011615116,-16.2463073730469,0.996809780597687,-18.9076691250589,-15.6488428115845,0.999227404594421
159,-16.4924918724111,-16.246265411377,0.996492087841034,-14.7209686936031,-15.6369924545288,0.999098777770996
160,-21.4995571944837,-16.246265411377,0.990647852420807,-14.718538849399,-15.6365118026733,0.998219907283783
161,-13.3177282553266,-16.2550659179688,0.953197836875916,-7.88612071892774,-15.60910987854,0.991605639457703
162,-11.3846828262381,-16.2626457214355,0.995124757289886,-20.7495571944837,-15.6287202835083,0.995291352272034
163,-20.1880598682805,-16.2619304656982,0.99703848361969,-16.161945571306,-15.5931377410889,0.999172449111938
164,-17.9988439670279,-16.3259887695312,0.996477901935577,-20.9995571944837,-15.6664419174194,0.999037981033325
165,-19.8565339386697,-16.3994560241699,0.989980638027191,-21.4995571944837,-15.7129688262939,0.991637051105499
166,-16.0062082269289,-16.3798847198486,0.989388346672058,-18.9281286230551,-15.73388671875,0.996414542198181
167,-18.2491143889674,-16.3788948059082,0.890496969223022,-20.7495571944837,-15.758282661438,0.949332535266876
168,-12.2119736483415,-16.3735256195068,0.996451735496521,-16.5540594439124,-15.7336473464966,0.99891185760498
169,-13.1664706092292,-16.3313064575195,0.997590065002441,-16.7081736224168,-15.7150421142578,0.99931812286377
170,-14.2416444047548,-16.3156127929688,0.996325790882111,-22.7497785972418,-15.8080196380615,0.998857975006104
171,-14.5606690479853,-16.2667255401611,0.996378600597382,-17.5241618948826,-15.80002784729,0.998890459537506
172,-13.6072224970755,-16.267053604126,0.791483521461487,-10.8715955372427,-15.8118762969971,0.438445240259171
173,-15.1963987340153,-16.248498916626,0.995797634124756,-11.7124586694988,-15.7975521087646,0.999028325080872
174,-20.143411943087,-16.3103065490723,0.996923983097076,-14.2195633772707,-15.8179006576538,0.998902559280396
175,-10.8068652047628,-16.2823600769043,0.996875166893005,-15.4554657561623,-15.7809371948242,0.998794198036194
176,-17.9991143889674,-16.3044147491455,0.998315811157227,-13.4979093368139,-15.7787628173828,0.999762237071991
177,-7.84790933681392,-16.2222785949707,0.997140288352966,-16.7031819455717,-15.804895401001,0.998866438865662
178,-17.355817273207,-16.2379951477051,0.976993083953857,-18.0734098657996,-15.8253974914551,0.964304327964783
179,-20.9995571944837,-16.2707901000977,0.997235596179962,-13.4976389148744,-15.790265083313,0.998916029930115
180,-15.7331908220884,-16.257116317749,0.996159911155701,-17.9019806310056,-15.8160581588745,0.999276220798492
181,-17.5686129001593,-16.266731262207,0.91513991355896,-21.4995571944837,-15.822548866272,0.975028157234192
182,-14.220390984712,-16.2275123596191,0.996771275997162,-17.8344421747042,-15.8280696868896,0.998393595218658
183,-22.7497785972418,-16.2982654571533,0.99982362985611,-17.7799932048376,-15.8526544570923,0.999464094638824
184,-18.8854290061497,-16.2724990844727,0.996066987514496,-13.026670763987,-15.8128385543823,0.997730195522308
185,-16.4988929862092,-16.2802124023438,0.995210826396942,-22.4997785972418,-15.8855791091919,0.997990369796753
186,-16.4211740641153,-16.2454528808594,0.991344928741455,-15.1782342147552,-15.9260511398315,0.989247739315033
187,-17.9740548928491,-16.2552871704102,0.983487010002136,-14.1915064594008,-15.8906669616699,0.985632300376892
188,-11.8760678087316,-16.1844635009766,0.416469871997833,-12.5730280271832,-15.904504776001,0.715922653675079
189,-16.4988929862092,-16.1703262329102,0.996204793453217,-11.9979583559952,-15.890456199646,0.997493147850037
190,-22.4997785972418,-16.2180576324463,0.997166693210602,-22.4997785972418,-15.9345865249634,0.998333394527435
191,-10.7552713504035,-16.1996784210205,1,-16.9117134990297,-15.9355440139771,0.999999403953552
192,-19.5624559374264,-16.2494010925293,0.995156288146973,-10.024675932103,-15.8677310943604,0.997665405273438
193,-13.4399633463926,-16.2220993041992,0.996921956539154,-3.99724512853944,-15.7739067077637,0.998433172702789
194,-22.7497785972418,-16.2788734436035,0.996959567070007,-14.4617152541566,-15.7736787796021,0.998242139816284
195,-3.65048068402282,-16.1761302947998,0.996920466423035,-14.3786225642697,-15.7987565994263,0.997880339622498
196,-13.2240230219356,-16.1890029907227,0.996637344360352,-13.6115932150422,-15.7995929718018,0.997463583946228
197,-14.5497355415397,-16.2004165649414,0.995549082756042,-12.5107551866163,-15.7229976654053,0.998237490653992
198,-16.4986225642697,-16.1740894317627,0.996567726135254,-13.4981797587534,-15.714560508728,0.997976243495941
199,-20.9995571944837,-16.2115631103516,0.997792482376099,-19.499065369786,-15.7394762039185,0.998966574668884
200,-10.4943647980147,-16.1517734527588,0.996911227703094,-17.9991143889674,-15.7668266296387,0.998251020908356
201,-15.9288729120573,-16.1751594543457,0.996272563934326,-14.0733610713156,-15.7418031692505,0.997965931892395
202,-10.2639794103287,-16.1369457244873,0.994420945644379,-18.9062887569607,-15.7620687484741,0.996375262737274
203,-16.2676284746523,-16.1237373352051,0.995875179767609,-18.1800086979104,-15.8049955368042,0.998030960559845
204,-13.0290380629079,-16.0875358581543,0.993463158607483,-14.3127510058337,-15.7906188964844,0.996158421039581
205,-21.4995571944837,-16.1298961639404,0.833234786987305,-11.391880546155,-15.7295007705688,0.712181925773621
206,-20.9995571944837,-16.1398963928223,0.996435403823853,-14.9981307395721,-15.689492225647,0.998331964015961
207,-16.4988929862092,-16.1148929595947,0.996838450431824,-17.9982432509856,-15.7092542648315,0.998492479324341
208,-16.3184019395854,-16.0886516571045,0.978501558303833,-13.4468447412781,-15.7255210876465,0.989288330078125
209,-19.4993357917255,-16.0981101989746,0.997169673442841,-5.49443202311668,-15.6421909332275,0.99873811006546
210,-16.2486225642697,-16.0547695159912,0.973868012428284,-11.3798788115515,-15.6094436645508,0.994038581848145
211,-9.7481797587534,-16.0126266479492,0.993801891803741,-11.3320049167844,-15.5681295394897,0.99710875749588
212,-5.70865374590947,-15.9446811676025,0.992994725704193,-17.1429500054057,-15.664776802063,0.998351812362671
213,-19.7608475170643,-15.9497594833374,0.998656392097473,-15.0021187926608,-15.6894826889038,0.998967409133911
214,-18.0657914879281,-15.9268684387207,0.995075523853302,-22.7497785972418,-15.6945428848267,0.997916042804718
215,-17.9991143889674,-15.9567089080811,0.996246874332428,-11.9979583559952,-15.6647815704346,0.998703479766846
216,-17.8897497804324,-15.9686918258667,0.9979008436203,-17.6086513810791,-15.6388425827026,0.999354302883148
217,-18.2491143889674,-16.017333984375,0.450864344835281,-13.1767511873248,-15.6103286743164,0.481518179178238
218,-8.72107728979805,-16.0004806518555,0.997866570949554,-2.74331386980665,-15.5211391448975,0.999103486537933
219,-13.9715289682106,-15.9772462844849,0.993750631809235,-12.1558152267337,-15.5329294204712,0.997059762477875
220,-18.6605741436362,-15.9934959411621,0.9969322681427,-11.7204426230131,-15.5140953063965,0.999588549137115
221,-16.8520555654379,-15.9858493804932,0.995375275611877,-13.4531909737129,-15.4837923049927,0.998595893383026
222,-14.779813216856,-15.9906301498413,0.947711765766144,-10.4828035013178,-15.4792013168335,0.989042222499847
223,-18.0208290043952,-15.9891080856323,0.995536923408508,-13.5425188085704,-15.4662714004517,0.997445464134216
224,-12.0983553518006,-15.9542093276978,0.860020220279694,-10.7237157884268,-15.4262371063232,0.95495343208313
225,-15.9863439670279,-16.0354385375977,0.995353937149048,-13.555641954105,-15.4132127761841,0.99771249294281
226,-17.9988439670279,-16.0803127288818,0.997466802597046,-19.4993357917255,-15.4249181747437,0.998765707015991
227,-19.0581593211373,-16.1459083557129,0.997853696346283,-12.145459985041,-15.4254131317139,0.998895525932312
228,-14.2104314477477,-16.0889778137207,0.997415065765381,-14.3065852939015,-15.4467220306396,0.998760104179382
229,-16.4988929862092,-16.1070728302002,0.987975299358368,-14.9984011615116,-15.4315576553345,0.99524599313736
230,-21.4995571944837,-16.1874504089355,0.99756395816803,-10.6504786093281,-15.396876335144,0.998826444149017
231,-14.7680289569638,-16.169849395752,0.997656941413879,-12.4447972052466,-15.3678855895996,0.998860359191895
232,-17.7329265253163,-16.1860694885254,0.999999284744263,-3.59530301528093,-15.2895259857178,0.999965786933899
233,-15.3261419441147,-16.1782512664795,0.993349850177765,-8.36036145677043,-15.2352705001831,0.996068835258484
234,-15.4975416348578,-16.1915836334229,0.997839689254761,-21.8592380567013,-15.2410011291504,0.998823463916779
235,-21.4995571944837,-16.2020606994629,0.997623026371002,-16.7482432509856,-15.2851591110229,0.998746871948242
236,-7.87913706321957,-16.1413955688477,0.997565388679504,-21.9009192816525,-15.3166017532349,0.998683512210846
237,-14.9037512858043,-16.1683330535889,0.997804820537567,-20.7495571944837,-15.3424234390259,0.998767912387848
238,-21.0222505073542,-16.1792030334473,0.999751031398773,-14.2472417297913,-15.3185272216797,0.999832987785339
239,-22.4997785972418,-16.2154293060303,0.998791754245758,-19.4993357917255,-15.3108949661255,0.999660968780518
240,-22.4997785972418,-16.2554359436035,0.997882425785065,-17.9985735450884,-15.3008899688721,0.998916625976562
241,-2.61173068012023,-16.1554679870605,0.998036205768585,-15.2015466697306,-15.3677015304565,0.999007284641266
242,-18.0618357917255,-16.1640377044678,0.998652398586273,-16.2587107917255,-15.361964225769,0.999559462070465
243,-7.35564009921314,-16.0971336364746,0.996639013290405,-17.8014191250589,-15.3817367553711,0.997673571109772
244,-11.8672948736078,-16.0412540435791,0.987139523029327,-18.8870009899634,-15.4077425003052,0.949603021144867
245,-12.1381019185282,-16.0553302764893,0.997632265090942,-13.9330416843874,-15.3970851898193,0.99840897321701
246,-6.83168203269755,-15.9825458526611,0.997801840305328,-22.7497785972418,-15.4145698547363,0.996195197105408
247,-10.3904523379869,-15.9589710235596,0.99831223487854,-16.5359359971055,-15.4092283248901,0.998856067657471
248,-17.0324240270196,-15.9625291824341,0.973701417446136,-10.4867710337046,-15.3491439819336,0.979577481746674
249,-12.5615324746429,-15.9498014450073,0.9985431432724,-13.5040229954643,-15.318076133728,0.999342262744904
250,-12.189398698516,-15.9533786773682,0.998080730438232,-15.8820931123716,-15.272292137146,0.999002158641815
251,-12.419524156164,-15.9337253570557,0.998152673244476,-17.526918833338,-15.25439453125,0.999064266681671
252,-15.6369720788328,-15.9179782867432,0.997489452362061,-17.0697241412401,-15.2882061004639,0.998831689357758
253,-13.5994178521078,-15.890832901001,0.998622894287109,-13.6252668331533,-15.2447786331177,0.999380588531494
254,-16.4326692062431,-15.9057483673096,0.999830365180969,-14.4291255443487,-15.2454929351807,0.99983274936676
255,-11.7254753973194,-15.8539228439331,0.997657179832458,-10.0346969466413,-15.2424087524414,0.999187886714935
256,-15.010797748114,-15.8239974975586,0.998567461967468,-18.278436320826,-15.2642755508423,0.997624456882477
257,-12.2382787686544,-15.8099937438965,0.998065888881683,-17.9986225642697,-15.3159503936768,0.999332129955292
258,-22.7497785972418,-15.8151607513428,0.997753083705902,-10.0913701942626,-15.290020942688,0.99925571680069
259,-5.1814785482414,-15.777361869812,0.99740344285965,-14.9663644997536,-15.2533416748047,0.998361766338348
260,-19.499065369786,-15.8200616836548,0.997764110565186,-11.9948566227124,-15.2191553115845,0.99928206205368
261,-20.2466836312653,-15.882851600647,0.998175859451294,-15.0738270326455,-15.1896514892578,0.998394429683685
262,-14.7076279694979,-15.8459053039551,0.993636012077332,-14.2519794059623,-15.156702041626,0.996374547481537
263,-16.3312615494455,-15.8228874206543,0.998221814632416,-4.35256172871157,-15.0340547561646,0.99944680929184
264,-21.4995571944837,-15.8315591812134,0.993677079677582,-13.4765951590477,-15.0661096572876,0.9985072016716
265,-16.7412196521253,-15.8195781707764,0.99718189239502,-18.9988439670279,-15.0999040603638,0.998957991600037
266,-10.0078505356818,-15.7834730148315,0.825330436229706,-14.3317344948449,-15.0965003967285,0.909775257110596
267,-18.2488439670279,-15.8020868301392,0.99711811542511,-15.3894676346923,-15.1224412918091,0.998980820178986
268,-20.9995571944837,-15.8320894241333,0.996240258216858,-17.9982432509856,-15.1024351119995,0.998307228088379
269,-20.9995571944837,-15.8807516098022,0.99751353263855,-14.9984011615116,-15.1254558563232,0.99898487329483
270,-19.4993357917255,-15.9150457382202,0.997140169143677,-19.4993357917255,-15.1828470230103,0.998753070831299
271,-15.4898551297081,-15.8922071456909,0.996128678321838,-14.6470411343573,-15.1982927322388,0.998320281505585
272,-13.4901455140973,-15.8821516036987,0.997350096702576,-14.9981307395721,-15.1782865524292,0.99890673160553
273,-8.28510290004215,-15.8391847610474,0.996863961219788,-17.3341484025728,-15.2173013687134,0.998792231082916
274,-15.707860620971,-15.8339128494263,0.998003780841827,-9.38496643009855,-15.1698760986328,0.999309301376343
275,-18.0699464787484,-15.873025894165,0.418055415153503,-13.7696639498633,-15.1291637420654,0.420105159282684
276,-17.2486225642697,-15.8680229187012,0.906597018241882,-16.8773195171725,-15.1516923904419,0.946329474449158
277,-16.8207617752471,-15.8339262008667,0.997276365756989,-16.8413097204525,-15.1706008911133,0.998913168907166
278,-14.2004297931854,-15.7985982894897,0.995290875434875,-13.0704198961986,-15.1477460861206,0.998067677021027
279,-18.1369326909503,-15.8396987915039,0.996497452259064,-14.7311807038046,-15.1292934417725,0.998631417751312
280,-12.4655423809532,-15.8321323394775,0.992657124996185,-22.7497785972418,-15.1915655136108,0.996125042438507
281,-14.9160024583922,-15.7977933883667,0.995563507080078,-16.2798602247867,-15.2344007492065,0.998241782188416
282,-13.8768596595353,-15.7703104019165,0.995757639408112,-19.4716678075358,-15.2442188262939,0.997879981994629
283,-12.8992908698645,-15.7584037780762,0.994791686534882,-20.249065369786,-15.2275485992432,0.996762275695801
284,-17.4586381173069,-15.744797706604,0.997187554836273,-9.17281976616272,-15.1587047576904,0.998810529708862
285,-17.023726035628,-15.708291053772,0.999857187271118,-6.14481638091779,-15.1096839904785,0.999893188476562
286,-9.4981797587534,-15.654953956604,0.997301161289215,-18.2046699445229,-15.0877180099487,0.998806834220886
287,-19.3856103015294,-15.6803283691406,0.997044861316681,-13.3990022403844,-15.0748271942139,0.998843193054199
288,-11.8219709895694,-15.6657390594482,0.999849081039429,-15.3279443696084,-15.0527315139771,0.999886274337769
289,-20.9995571944837,-15.6999645233154,0.995898306369781,-10.4968658152554,-15.0337371826172,0.99824857711792
290,-9.42971502846294,-15.6819334030151,0.93993067741394,-13.7903867621428,-15.0615510940552,0.978684842586517
291,-19.4993357917255,-15.6998243331909,0.996740877628326,-14.9984011615116,-15.0520668029785,0.99880063533783
292,-14.9981307395721,-15.7025060653687,0.996815979480743,-11.9958126579037,-15.0636682510376,0.998875081539154
293,-8.10190993677558,-15.6552600860596,0.997427642345428,-19.3176307706299,-15.0541229248047,0.999083042144775
294,-8.63673286622568,-15.6028480529785,0.995263576507568,-14.467349683085,-15.0405807495117,0.9983811378479
295,-9.05346489236947,-15.5851192474365,0.990935623645782,-5.65094883224314,-14.9520978927612,0.986876964569092
296,-15.7033546201691,-15.5698156356812,0.99380749464035,-8.10524715405609,-14.9161462783813,0.99265044927597
297,-20.4101906786466,-15.5675535202026,0.996538758277893,-9.86017070897964,-14.9159517288208,0.998859763145447
298,-16.2483521423302,-15.5555114746094,0.99671196937561,-18.0410024583922,-14.9128789901733,0.998832643032074
299,-16.4986225642697,-15.5255041122437,0.995489776134491,-16.4986225642697,-14.9128761291504,0.998348712921143
300,-12.3106307395721,-15.4752149581909,0.970154166221619,-11.795703454461,-14.9515190124512,0.989121377468109
301,-21.0935285972418,-15.5103807449341,0.998780310153961,-8.95646407290541,-14.8991565704346,0.999675631523132
302,-14.5733842271292,-15.4642086029053,0.997808992862701,-21.7698935397706,-14.9360790252686,0.99942421913147
303,-16.1584380629688,-15.4409046173096,0.996584296226501,-20.4949446483582,-14.9691734313965,0.999116837978363
304,-9.64311964631782,-15.4052038192749,0.997710108757019,-6.9565432346102,-14.9255619049072,0.999307036399841
305,-18.8567000516265,-15.437647819519,0.95791620016098,-5.75638962477918,-14.8427038192749,0.980161607265472
306,-17.0039220812751,-15.4604234695435,0.998079299926758,-11.8830165461269,-14.8067607879639,0.99954092502594
307,-19.3100953110756,-15.5305309295654,0.997639060020447,-20.4995571944837,-14.8863544464111,0.999285161495209
308,-18.7359074750492,-15.5654458999634,0.996436476707458,-10.1358896285638,-14.8278760910034,0.99836653470993
309,-9.4981797587534,-15.5188179016113,0.996518969535828,-16.5766337688123,-14.8402471542358,0.999030828475952
310,-19.4993357917255,-15.5054836273193,0.993338882923126,-11.9964865019713,-14.8220996856689,0.993822932243347
311,-17.6736385805701,-15.5345211029053,0.997794508934021,-17.6276004447442,-14.8870429992676,0.999397397041321
312,-15.8275611681941,-15.5641403198242,0.995490849018097,-14.4900043555161,-14.8453121185303,0.998659133911133
313,-14.9984011615116,-15.5295438766479,0.999045073986053,-13.4981797587534,-14.8275537490845,0.999721109867096
314,-11.3448021897892,-15.4851856231689,0.991715610027313,-14.0731236736231,-14.7813787460327,0.993728995323181
315,-22.7497785972418,-15.5044727325439,0.996837615966797,-6.20392458847889,-14.679407119751,0.999058544635773
316,-17.7610089434765,-15.5161714553833,0.997452795505524,-12.4315509608829,-14.6360969543457,0.999110162258148
317,-1.12991436322853,-15.402042388916,0.985221087932587,-14.6308315446676,-14.5953063964844,0.987146258354187
318,-10.8469199996785,-15.3929424285889,0.99999725818634,-18.2468482295365,-14.6065902709961,0.999990940093994
319,-11.9970872180135,-15.3851461410522,0.996113896369934,-17.9988439670279,-14.615195274353,0.998271703720093
320,-7.21806344036139,-15.3383235931396,0.998353362083435,-15.1054679801276,-14.5642337799072,0.999283015727997
321,-19.4993357917255,-15.3712463378906,0.996874570846558,-13.4981797587534,-14.537392616272,0.998597085475922
322,-19.4993357917255,-15.4105272293091,0.999999761581421,-13.1538737983275,-14.5526094436646,0.999999523162842
323,-17.7765466760793,-15.4277276992798,0.998676478862762,-21.0371935632282,-14.6147737503052,0.999434053897858
324,-16.0763293471448,-15.4006156921387,0.997481167316437,-17.2941656044548,-14.6352701187134,0.998796939849854
325,-20.9995571944837,-15.4685659408569,0.997091174125671,-13.4979093368139,-14.6222200393677,0.998647749423981
326,-18.5470011613753,-15.4722185134888,0.783043742179871,-21.4995571944837,-14.6755647659302,0.416118621826172
327,-17.7486225642697,-15.5382242202759,0.996912360191345,-12.6931160278955,-14.6488313674927,0.998557269573212
328,-9.64771331401719,-15.4868354797363,0.992419302463531,-11.8535794399067,-14.607364654541,0.994162499904633
329,-15.7478004454693,-15.4518232345581,0.871779978275299,-19.4666230627472,-14.6471586227417,0.913385093212128
330,-11.6688843494085,-15.424729347229,0.994570553302765,-11.9419894718355,-14.6074247360229,0.996735632419586
331,-13.5192290168979,-15.3977346420288,0.584851324558258,-20.4305095754361,-14.6002979278564,0.567234218120575
332,-10.8874437166713,-15.3755140304565,0.996449708938599,-13.9348233462327,-14.5742998123169,0.998553097248077
333,-19.8933878363352,-15.3564710617065,0.994679868221283,-12.3176119390444,-14.5378856658936,0.998034298419952
334,-14.0967107991373,-15.3245458602905,0.996714115142822,-1.59457111676991,-14.4616718292236,0.998719692230225
335,-17.1008586343651,-15.3285598754883,0.991293966770172,-12.8247646962494,-14.3971710205078,0.990128934383392
336,-13.9273760225909,-15.3119335174561,0.995076477527618,-8.48331558790137,-14.3525390625,0.997980177402496
337,-12.9927620637672,-15.2787275314331,0.8427973985672,-11.8184418583897,-14.3367166519165,0.895339846611023
338,-6.68782877912618,-15.2441377639771,0.98919802904129,-8.01144214699526,-14.3063068389893,0.99244612455368
339,-14.998671583451,-15.2341375350952,0.996857523918152,-14.9981307395721,-14.3263082504272,0.998641431331635
340,-16.6611024068231,-15.1952114105225,0.992720127105713,-18.2724839398737,-14.2981262207031,0.995440721511841
341,-16.4986225642697,-15.2335014343262,0.996824145317078,-11.997357639953,-14.2653646469116,0.998598754405975
342,-13.1571148544576,-15.1907987594604,0.997235238552094,-15.7478004454693,-14.3035192489624,0.998875200748444
343,-20.9995571944837,-15.2411966323853,0.996934294700623,-14.9984011615116,-14.3768587112427,0.998729526996613
344,-15.8094592165536,-15.1949281692505,0.987522065639496,-15.7661343655195,-14.385555267334,0.986988425254822
345,-13.4981797587534,-15.2605791091919,0.996322631835938,-10.4937640819725,-14.3596563339233,0.998634040355682
346,-13.0972873899952,-15.2597332000732,0.695913672447205,-15.6328353191999,-14.3731317520142,0.736380219459534
347,-10.4968658152554,-15.2327146530151,0.997264385223389,-17.9988439670279,-14.4097185134888,0.998888194561005
348,-9.70500668134349,-15.187424659729,0.618748009204865,-9.37406778979609,-14.3822231292725,0.869160592556
349,-17.9988439670279,-15.1674184799194,0.996872246265411,-14.9981307395721,-14.352219581604,0.998854637145996
350,-16.8083927394828,-15.209511756897,0.998481214046478,-18.4709852762616,-14.3553647994995,0.998996078968048
351,-19.1119167450455,-15.2307319641113,0.997168719768524,-16.7235630681515,-14.3730325698853,0.999023079872131
352,-10.4116659916878,-15.2317171096802,0.996035158634186,-15.8875484483941,-14.3529071807861,0.997960805892944
353,-15.1616660425306,-15.22434425354,0.924696207046509,-15.61346064229,-14.3357973098755,0.698420822620392
354,-13.936717802365,-15.2303953170776,0.996747612953186,-7.04735763995301,-14.2873620986938,0.998829543590546
355,-14.7535032023279,-15.1854219436646,0.999434769153595,-16.8664613277429,-14.3238592147827,0.99851006269455
356,-17.9988439670279,-15.1654167175293,0.997745037078857,-8.99637399055773,-14.2838478088379,0.996535301208496
357,-17.9988439670279,-15.1754169464111,0.997423410415649,-11.9979583559952,-14.2438440322876,0.9991534948349
358,-7.25517857260174,-15.1149950027466,0.997433722019196,-13.8281253552166,-14.2463865280151,0.999155879020691
359,-18.698274783768,-15.109655380249,0.999900341033936,-9.61070384623588,-14.2738285064697,0.999904632568359
360,-16.6002485805299,-15.1119985580444,0.623596966266632,-10.2267620147615,-14.2661409378052,0.843735635280609
361,-13.4655596528759,-15.1367807388306,0.996524274349213,-13.9243270874375,-14.2834224700928,0.998773872852325
362,-10.8668222141431,-15.1711683273315,0.657863855361938,-15.5117804590066,-14.2725467681885,0.484668582677841
363,-14.3389857195767,-15.1350231170654,0.99638557434082,-14.6988843443744,-14.270525932312,0.998942792415619
364,-9.40903247193169,-15.0773115158081,0.990721821784973,-22.7497785972418,-14.270525932312,0.996735751628876
365,-9.38562513627497,-15.0198879241943,0.839800894260406,-8.819863825819,-14.2493391036987,0.918179392814636
366,-17.9988439670279,-15.0206155776978,0.998167395591736,-19.4993357917255,-14.2619438171387,0.999599039554596
367,-7.0780972907809,-14.9461421966553,0.989304780960083,-10.849278354494,-14.2464275360107,0.989617764949799
368,-16.4988929862092,-14.9979944229126,0.996731162071228,-19.4993357917255,-14.3581352233887,0.999143004417419
369,-12.0454863633053,-14.9851541519165,0.997008740901947,-18.7358828769273,-14.4020023345947,0.99758517742157
370,-6.35608906958177,-14.9031248092651,0.561462581157684,0.58707185418918,-14.3199529647827,0.79066002368927
371,-13.7479093368139,-14.8824300765991,0.996053576469421,-15.8833425768868,-14.3361539840698,0.999237775802612
372,-9.13341206172172,-14.8447866439819,0.992363572120667,-17.1249647291034,-14.3804349899292,0.9974325299263
373,-16.8681180790043,-14.837100982666,0.995192050933838,-12.2364085415854,-14.3717269897461,0.999146223068237
374,-13.9871018269425,-14.8496942520142,0.996688902378082,-13.3526391551467,-14.3892526626587,0.999570190906525
375,-14.1470666668389,-14.8374319076538,0.995697379112244,-10.4600070334701,-14.3686151504517,0.999198138713837
376,-16.4988929862092,-14.827431678772,0.994744420051575,-11.9948566227124,-14.318585395813,0.998876392841339
377,-16.2118948525828,-14.8084573745728,0.995221436023712,-16.0598713610789,-14.3446826934814,0.998458862304688
378,-10.8479093368139,-14.7860403060913,0.825624704360962,-18.2488439670279,-14.3709630966187,0.508224129676819
379,-9.30225716290087,-14.7380628585815,0.993351399898529,-9.30252758484035,-14.332989692688,0.998473107814789
380,-18.1879322829536,-14.7159843444824,0.901556015014648,-12.6343660737923,-14.3462162017822,0.917176961898804
381,-19.015656266503,-14.7443037033081,0.975952327251434,-5.96296258893341,-14.3030033111572,0.996304392814636
382,-15.5684423840895,-14.7298727035522,0.994886219501495,-7.29587452092595,-14.3276739120483,0.999118864536285
383,-17.9991143889674,-14.7476921081543,0.989498734474182,-17.9991143889674,-14.3919334411621,0.997608184814453
384,-19.5170397119662,-14.774489402771,0.995879054069519,-11.7283482734804,-14.3243942260742,0.999302506446838
385,-12.1382316699861,-14.7120800018311,0.994697690010071,-10.4458708525664,-14.2823791503906,0.999106466770172
386,-16.9762761955546,-14.7727279663086,0.99494343996048,-18.8568776911669,-14.2620849609375,0.999284446239471
387,-16.0635695336346,-14.780460357666,0.925915896892548,-14.6825340349837,-14.2216377258301,0.979396820068359
388,-14.1062060207332,-14.734354019165,0.995136439800262,-2.47418645465475,-14.1431512832642,0.999103605747223
389,-18.0026027610604,-14.7043714523315,0.274929463863373,-12.4632960378232,-14.0962438583374,0.737850546836853
390,-6.51192762770947,-14.5977869033813,0.99245947599411,-15.1420049167844,-14.0772008895874,0.998818337917328
391,-11.5480906025053,-14.6573619842529,0.99826967716217,-18.9527519407938,-14.1022090911865,0.999774992465973
392,-15.1347764104236,-14.6378479003906,0.999732077121735,-10.6879093368139,-14.0650701522827,0.999705612659454
393,-14.9984011615116,-14.6888008117676,0.985889434814453,-14.9975300235298,-14.0463771820068,0.995875418186188
394,-10.404294336537,-14.6790466308594,0.994616091251373,-6.41245023083978,-13.9632129669189,0.999009966850281
395,-12.8637576482006,-14.6838836669922,0.995786845684052,-15.6084108713794,-13.9743814468384,0.999147415161133
396,-18.3375710858432,-14.7605895996094,0.994830548763275,-14.9779221803926,-13.9225702285767,0.998893916606903
397,-17.6461181342857,-14.8089618682861,0.505534768104553,-13.2170577802167,-13.9004440307617,0.359070867300034
398,-18.2598231710116,-14.8171453475952,0.996439874172211,-16.7060109406915,-13.9419059753418,0.999090194702148
399,-8.54885546952341,-14.7903938293457,0.99990177154541,-12.2908626855827,-13.9338188171387,0.999946117401123
400,-20.249065369786,-14.8441247940063,0.998089015483856,-15.1861225642697,-13.929178237915,0.999489068984985
401,-16.7645156088189,-14.8730907440186,0.998537659645081,-21.6923159106747,-13.9569482803345,0.999690651893616
402,-14.7935534398458,-14.867467880249,0.858995318412781,-18.7939962453621,-13.9684419631958,0.814599752426147
403,-13.4973086207717,-14.8667869567871,0.998839199542999,-13.4981797587534,-13.9675960540771,0.999674201011658
404,-16.1482371959849,-14.8648910522461,0.995658874511719,-11.2577996577522,-13.9464530944824,0.998491764068604
405,-11.1669351961879,-14.8611688613892,0.990151345729828,-5.67373048635873,-13.9173793792725,0.994034826755524
406,-4.67018399200341,-14.7922315597534,0.998655438423157,-8.73080007960901,-13.8537292480469,0.999645352363586
407,-9.71565009226502,-14.7754135131836,0.99844366312027,-14.3583958260931,-13.8294610977173,0.999604761600494
408,-12.3841601513368,-14.7063083648682,0.993107914924622,-12.3035482203351,-13.8442087173462,0.996218144893646
409,-14.546442284088,-14.768741607666,0.886734426021576,-8.93875823907886,-13.8040246963501,0.91190093755722
410,-14.4296950308577,-14.7349462509155,0.996855735778809,-9.85505456217444,-13.789758682251,0.998735845088959
411,-16.275724405104,-14.7084732055664,0.99689120054245,-18.7493357917255,-13.8142623901367,0.998655796051025
412,-16.4988929862092,-14.7204151153564,0.988734662532806,-17.9991143889674,-13.8392448425293,0.992703199386597
413,-16.2486225642697,-14.7198629379272,0.998989403247833,-9.79795835599524,-13.8755464553833,0.999446094036102
414,-17.7428799750023,-14.6948194503784,0.996630012989044,-9.4441617600153,-13.8486633300781,0.998630821704865
415,-16.9007245509302,-14.6958837509155,0.994743704795837,-13.8896923373612,-13.8146028518677,0.99690705537796
416,-14.8132169530699,-14.7279195785522,0.968688607215881,-21.653624751088,-13.8634147644043,0.959561467170715
417,-9.58394492808981,-14.6701526641846,0.993734538555145,-9.18165875339768,-13.8220300674438,0.994333386421204
418,-16.4005897102208,-14.6394939422607,0.756980895996094,-12.9996766852688,-13.7887058258057,0.930872917175293
419,-11.3368874532487,-14.5750751495361,0.997697174549103,-16.9541754355029,-13.8017444610596,0.987497806549072
420,-14.2936691056122,-14.5403709411621,0.993030965328217,-12.4610877286757,-13.7548246383667,0.991396486759186
421,-14.3545843650673,-14.5328025817871,0.993618726730347,-13.8089240718074,-13.7492351531982,0.995015799999237
422,-13.4981797587534,-14.5328550338745,0.996397316455841,-13.4979093368139,-13.7392349243164,0.997931241989136
423,-12.8269607202131,-14.5631351470947,0.999519228935242,-17.6702844083263,-13.7414741516113,0.999030113220215
424,-18.1414926544706,-14.5793590545654,0.996838450431824,-9.17442894423053,-13.7400712966919,0.99815422296524
425,-8.42110323232033,-14.5150327682495,0.995876431465149,-10.1418427971577,-13.7158851623535,0.995411694049835
426,-16.9930168279917,-14.5133304595947,0.996705114841461,-13.8764499419994,-13.6958808898926,0.997775495052338
427,-15.7054275641134,-14.5058937072754,0.997165739536285,-16.753351677103,-13.6952934265137,0.998048305511475
428,-7.43969659766253,-14.4608221054077,0.994347870349884,-17.0414424312954,-13.7217655181885,0.994244992733002
429,-17.0419715318245,-14.4535217285156,0.981329739093781,-8.75263206434617,-13.6819095611572,0.970142185688019
430,-14.5604314477477,-14.4674882888794,0.997856199741364,-20.497249502176,-13.6668930053711,0.998663187026978
431,-11.3201300006643,-14.4435157775879,0.997128903865814,-11.3294200577218,-13.6338901519775,0.998054623603821
432,-17.9991143889674,-14.4709959030151,0.996799826622009,-7.49481815552648,-13.5540447235107,0.997584939002991
433,-19.6880817846476,-14.5162563323975,0.996861338615417,-18.4706472671354,-13.5421886444092,0.997690796852112
434,-14.702946616057,-14.4978837966919,0.907913506031036,-15.7036108243315,-13.5857276916504,0.915839970111847
435,-12.8683830433116,-14.4701824188232,0.996441543102264,-10.6430100263076,-13.6157150268555,0.997750699520111
436,-21.4995571944837,-14.5501899719238,0.996698260307312,-14.3645025005941,-13.5901136398315,0.997378587722778
437,-14.9984011615116,-14.5209426879883,0.99637907743454,-11.9976879340558,-13.580771446228,0.996877670288086
438,-22.4997785972418,-14.5921287536621,0.996638774871826,-17.9991143889674,-13.5985803604126,0.997533917427063
439,-16.4210229553547,-14.5616044998169,0.98595803976059,-18.1009840448489,-13.6492738723755,0.946405470371246
440,-14.6038857221645,-14.5960998535156,0.999555051326752,-15.5488929862092,-13.6609973907471,0.998894870281219
441,-17.3673252515872,-14.5818862915039,0.630968630313873,-18.8731377086584,-13.6868295669556,0.740984380245209
442,-10.4971362371948,-14.5518798828125,0.996427714824677,-14.9984011615116,-13.7068471908569,0.997106373310089
443,-9.209359882977,-14.5592622756958,0.99673455953598,-6.83646767276542,-13.6236381530762,0.997370958328247
444,-16.8663653345492,-14.6141271591187,0.999656081199646,-14.1513146386309,-13.6215314865112,0.999180972576141
445,-12.4127138060877,-14.6365213394165,0.994397938251495,-15.8072817821468,-13.6892395019531,0.990559756755829
446,-18.9924233493292,-14.6584491729736,0.998716711997986,-10.0189170859423,-13.7019987106323,0.998632729053497
447,-6.81605273525491,-14.5678224563599,0.955367028713226,-14.1973902510363,-13.7309131622314,0.900107622146606
448,-13.4975790427112,-14.5494823455811,0.995857536792755,-13.4979093368139,-13.7006254196167,0.99529892206192
449,-20.4995571944837,-14.5761556625366,0.996506631374359,-11.4698501965857,-13.6670999526978,0.996586918830872
450,-19.1851764996901,-14.6219854354858,0.99795925617218,-6.64067112498988,-13.6327333450317,0.998379468917847
451,-7.11347517912556,-14.5287857055664,0.993183314800262,-18.6504985824232,-13.6973600387573,0.991552770137787
452,-14.9984011615116,-14.5316190719604,0.996431827545166,-16.4988929862092,-13.6622200012207,0.996430575847626
453,-7.38098350669137,-14.4731025695801,1,-9.4242112315468,-13.588415145874,1
454,-8.44299621052278,-14.4651012420654,0.996667802333832,-17.8309959220684,-13.6609115600586,0.997061431407928
455,-11.0722364189569,-14.4132061004639,0.996641516685486,-6.22556276815814,-13.6640396118164,0.996869504451752
456,-11.2416981566897,-14.374792098999,0.996263563632965,-12.2434723544789,-13.6664419174194,0.995835423469543
457,-16.4988929862092,-14.3560495376587,0.996141612529755,-17.9988439670279,-13.6497707366943,0.995538115501404
458,-20.3703625636112,-14.3669462203979,0.998782813549042,-9.13131540593299,-13.6430740356445,0.995700418949127
459,-9.68573825225699,-14.3681964874268,0.995263457298279,-14.4979093368139,-13.6292152404785,0.995206415653229
460,-4.364934880136,-14.2672996520996,0.99664705991745,-9.01658153598404,-13.6093502044678,0.996594727039337
461,-8.23920623075431,-14.2044038772583,0.996290326118469,-21.4995571944837,-13.6351623535156,0.995968103408813
462,-8.27262759614989,-14.1540384292603,0.995737433433533,-14.4358187569438,-13.634801864624,0.995292186737061
463,-16.8943713059634,-14.1666784286499,0.98560357093811,-7.78737964924746,-13.5967302322388,0.975854814052582
464,-8.02989950496397,-14.1445779800415,0.994503140449524,-16.6392110073248,-13.6138362884521,0.993489384651184
465,-17.9988439670279,-14.1129055023193,0.996069550514221,-14.9978004454693,-13.6724624633789,0.995685219764709
466,-15.9774811560177,-14.1010160446167,0.99626499414444,-12.6373973005077,-13.6738348007202,0.996130585670471
467,-12.8189139820244,-14.1789417266846,0.996202290058136,-14.3129955503118,-13.6717157363892,0.995578944683075
468,-14.8734011615116,-14.2057847976685,0.996952891349792,-15.7486225642697,-13.6550617218018,0.996552705764771
469,-10.8379963089226,-14.1980562210083,0.993574559688568,-11.5659822636511,-13.6121759414673,0.924637496471405
470,-14.6385556645555,-14.2475280761719,0.996696352958679,-5.94435822304482,-13.5511016845703,0.994762480258942
471,-17.6648219284604,-14.2352981567383,0.676798284053802,-20.388675651784,-13.5970373153687,0.509038925170898
472,-12.5112706935134,-14.1887111663818,0.980976402759552,-12.5140561988357,-13.5927734375,0.955634117126465
473,-14.2801429862092,-14.1654005050659,0.998064815998077,-13.2017475642697,-13.5405368804932,0.991869449615479
474,-13.6493632056449,-14.1492223739624,0.953868627548218,-14.0514222756222,-13.5189189910889,0.927866280078888
475,-21.6829469140735,-14.1537761688232,0.998012185096741,-10.2217800821972,-13.4970788955688,0.99598890542984
476,-8.99564027432687,-14.0901012420654,0.996819496154785,-19.4993357917255,-13.4837436676025,0.995086014270782
477,-14.6826716440243,-14.0696611404419,0.996724665164948,-14.1890280161076,-13.4937162399292,0.994372725486755
478,-17.7535552010082,-14.1237010955811,0.996082544326782,-10.6743400963061,-13.4858541488647,0.994189381599426
479,-6.88359720684113,-14.0646057128906,0.999994277954102,-10.1799481717654,-13.4239416122437,0.999996185302734
480,-18.9988439670279,-14.1134729385376,0.996078670024872,-15.1860513259043,-13.4455699920654,0.992899537086487
481,-15.2570477945041,-14.1250581741333,0.996659994125366,-12.7019268687981,-13.3940458297729,0.994785249233246
482,-18.1477421662275,-14.1734600067139,0.996224284172058,-10.9730089384075,-13.3743000030518,0.993797361850739
483,-13.9025627109798,-14.1335201263428,0.992703795433044,-10.4275706660198,-13.3617010116577,0.982730507850647
484,-2.83529987462127,-14.0584440231323,0.993410646915436,-16.0184942339286,-13.457859992981,0.997732877731323
485,-13.4981797587534,-14.0344266891479,0.996137201786041,-14.9984011615116,-13.4723501205444,0.994221389293671
486,-16.589753057937,-14.0521764755249,0.993972957134247,-9.87841357513407,-13.481650352478,0.991657018661499
487,-14.2539907323872,-14.0605840682983,0.996918916702271,-15.6640080059886,-13.507287979126,0.99566924571991
488,-18.6940260572122,-14.1406269073486,0.993166863918304,-14.4015478534658,-13.5498876571655,0.988545954227448
489,-4.82819833529194,-14.0728235244751,0.990748465061188,-13.5015657184736,-13.5399103164673,0.982581615447998
490,-16.2782557317338,-14.0702705383301,0.999480545520782,-17.0138202713203,-13.5315198898315,0.998252093791962
491,-15.3499030872193,-14.0626125335693,0.786561369895935,-19.4892347816245,-13.5814666748047,0.572133183479309
492,-17.6393582914064,-14.092493057251,0.996065318584442,-10.2159986970932,-13.5445861816406,0.994941532611847
493,-18.4065594998169,-14.0752086639404,0.983872354030609,-13.9934384407547,-13.5378875732422,0.972943961620331
494,-6.91947608367186,-14.0159406661987,0.991426944732666,-13.3353576832507,-13.5216817855835,0.987230122089386
495,-11.8803822777063,-14.0051565170288,0.995931565761566,-5.37862552869194,-13.4875812530518,0.994125604629517
496,-20.249065369786,-14.0528335571289,0.999999642372131,-9.09516682188731,-13.4439973831177,0.999998569488525
497,-4.9459538224905,-14.0158281326294,0.995839357376099,-10.4663967317719,-13.393780708313,0.993971526622772
498,-15.0434135341544,-14.051417350769,0.995389103889465,-13.0429217094568,-13.4182405471802,0.99328738451004
499,-19.024825987804,-14.0582571029663,0.731118440628052,-10.6419180925282,-13.389199256897,0.776130020618439
500,-10.9573996169094,-14.019250869751,0.985497951507568,-8.32215601916214,-13.3215398788452,0.972484886646271
501,-16.4986225642697,-14.0018291473389,0.996437549591064,-13.4984501806929,-13.3000392913818,0.99520468711853
502,-20.249065369786,-14.0674123764038,0.996257424354553,-4.77530053897942,-13.2259569168091,0.995356142520905
503,-9.54175774040477,-14.0299463272095,0.996556639671326,-16.7743437467655,-13.2336959838867,0.995599508285522
504,-15.7379842663974,-14.0419549942017,0.996601343154907,-13.354784140235,-13.2757453918457,0.995947420597076
505,-20.3845279248521,-14.0794954299927,0.973299324512482,-10.6807777392552,-13.2345085144043,0.943089425563812
506,-8.25725157193192,-14.0145511627197,0.996691346168518,-2.94903736947098,-13.1941928863525,0.996671557426453
507,-13.4979093368139,-13.984543800354,0.996520638465881,-11.9945862007729,-13.1941699981689,0.996504068374634
508,-19.4993357917255,-14.0661716461182,0.996466636657715,-17.7486225642697,-13.2203063964844,0.996143579483032
509,-14.2638929862092,-14.0366077423096,0.995990455150604,-8.20630448260135,-13.2109441757202,0.995456218719482
510,-7.30431613367618,-13.9746351242065,0.997823715209961,-13.4893650169332,-13.2326955795288,0.997276365756989
511,-9.37530489940899,-13.9473667144775,0.999644041061401,-16.35865705114,-13.2489242553711,0.999307513237
512,-12.012086159755,-13.9550018310547,0.993457734584808,-11.2626868757973,-13.2205953598022,0.995489180088043
513,-16.4983521423302,-13.9693975448608,0.99623715877533,-17.9988439670279,-13.2425956726074,0.996566116809845
514,-18.8355803332102,-14.0322408676147,0.996205151081085,-15.3362292307507,-13.193172454834,0.996644258499146
515,-14.9984011615116,-14.0696601867676,0.996203005313873,-16.4986225642697,-13.2443647384644,0.996467709541321
516,-10.6678926869353,-14.020788192749,0.989851355552673,-19.4993357917255,-13.2443647384644,0.980342209339142
517,-16.4988929862092,-14.0835933685303,0.996209025382996,-16.4988929862092,-13.2820281982422,0.99645870923996
518,-17.5597186608217,-14.0906658172607,0.998486638069153,-16.4975300235298,-13.2620162963867,0.995873749256134
519,-14.852335777676,-14.1093778610229,0.99681431055069,-13.6276261229886,-13.2279624938965,0.997199773788452
520,-14.1801429862092,-14.1615381240845,0.996337532997131,-17.6868357917255,-13.3497867584229,0.99674379825592
521,-4.51315641365222,-14.0999736785889,0.996381640434265,-11.3618161223898,-13.3196439743042,0.996541440486908
522,-4.09313082866909,-14.066370010376,0.934409201145172,-10.1367982257028,-13.2730550765991,0.830265283584595
523,-11.6271629976366,-14.0314321517944,0.999120652675629,-13.1873322416891,-13.2793941497803,0.998952984809875
524,-14.9984011615116,-14.0381736755371,0.997682213783264,-13.4975790427112,-13.2803611755371,0.997561097145081
525,-16.6782188665793,-14.0550470352173,0.982167601585388,-10.5431772809145,-13.2809152603149,0.970002174377441
526,-12.7900547347613,-14.0303220748901,0.99605667591095,-5.66126107586252,-13.2386913299561,0.996531963348389
527,-7.00318081701188,-13.9689302444458,0.996150016784668,-16.4984011615116,-13.2416162490845,0.995958149433136
528,-7.54389269061318,-13.9469041824341,0.994905948638916,-17.4518170916701,-13.2363023757935,0.994472324848175
529,-13.7706683679893,-13.9766931533813,0.942721247673035,-13.9991143889674,-13.2676124572754,0.900565385818481
530,-6.15575084544961,-13.8964776992798,0.996003687381744,-12.2570049167844,-13.2650966644287,0.996129155158997
531,-19.7794717243982,-13.901572227478,0.995668411254883,-19.2130110054007,-13.3534307479858,0.996006786823273
532,-12.3980690587347,-13.8804359436035,0.994345605373383,-16.1301106989305,-13.4123258590698,0.992565393447876
533,-16.1954267533925,-13.8684110641479,0.986232221126556,-17.4456481561507,-13.4086360931396,0.957620680332184
534,-17.9982432509856,-13.8582859039307,0.999092936515808,-13.4979093368139,-13.4204330444336,0.998811602592468
535,-13.4979093368139,-13.8673505783081,0.995674669742584,-11.9979583559952,-13.4307794570923,0.994958341121674
536,-14.8351498430597,-13.8530759811401,0.983998537063599,-16.2817550943902,-13.4136123657227,0.971588850021362
537,-15.3649959691551,-13.8484182357788,0.95945006608963,-0.691548256523183,-13.3203392028809,0.861796736717224
538,-14.3377668712369,-13.8499622344971,0.998663306236267,-5.03846807589973,-13.3374347686768,0.996738731861115
539,-11.3275389664435,-13.8054618835449,0.981103181838989,-19.4660024583922,-13.3841190338135,0.965028285980225
540,-7.70703308909132,-13.8134298324585,0.994604289531708,-20.3509806820282,-13.4188461303711,0.992370128631592
541,-4.4843504953567,-13.7663383483887,0.995688498020172,-11.1900164934473,-13.367094039917,0.995137274265289
542,-17.9991143889674,-13.7854328155518,0.995774328708649,-19.4993357917255,-13.4258365631104,0.995209634304047
543,-13.4520492255869,-13.7751235961914,0.995746195316315,-11.4887225542337,-13.4024448394775,0.996457040309906
544,-19.4066716990614,-13.8351402282715,0.995861768722534,-9.39896191366068,-13.4223546981812,0.995506167411804
545,-11.9762183889745,-13.8292236328125,0.966663837432861,-9.15705048385655,-13.3793458938599,0.92941015958786
546,-15.2413172286334,-13.8085803985596,1,-14.343368553148,-13.3751153945923,1
547,-19.3814318615945,-13.8201494216919,0.996528685092926,-18.2820868834286,-13.4088830947876,0.996205270290375
548,-6.24635350178268,-13.7400617599487,0.996536016464233,-19.3138519207578,-13.4262676239014,0.996206045150757
549,-20.2043375562408,-13.8177633285522,0.995692551136017,-15.1969429777064,-13.4456415176392,0.995298326015472
550,-14.1880121571937,-13.7773571014404,0.998769581317902,-13.1776907283459,-13.4322519302368,0.999019026756287
551,-19.4993357917255,-13.7955894470215,0.996791303157806,-16.4988929862092,-13.397629737854,0.997647345066071
552,-15.5261556039173,-13.8004722595215,0.996064484119415,-17.9343578181572,-13.3918981552124,0.995984792709351
553,-3.29514844962923,-13.732458114624,0.995617032051086,-19.4993357917255,-13.4319067001343,0.995610415935516
554,-10.5907211952175,-13.6954069137573,0.992900848388672,-15.7019316602423,-13.4615335464478,0.993668258190155
555,-17.9988439670279,-13.7409534454346,0.995118618011475,-14.9984011615116,-13.5236978530884,0.995083868503571
556,-17.3151888576802,-13.8252534866333,0.995648682117462,-14.401404605251,-13.5615015029907,0.993931293487549
557,-14.998671583451,-13.8604755401611,0.994813680648804,-7.49555187175734,-13.5157489776611,0.993952095508575
558,-11.9974175121163,-13.8578958511353,0.995217442512512,-16.4980218482275,-13.5437116622925,0.995460689067841
559,-6.52859902451891,-13.804443359375,0.995768308639526,-13.4651963804257,-13.5738887786865,0.994696617126465
560,-5.69828640378653,-13.7462339401245,0.995811700820923,-15.2362938761468,-13.6097650527954,0.992696285247803
561,-18.8378321270982,-13.7633152008057,0.995533466339111,-7.66274653111887,-13.5358543395996,0.99083685874939
562,-14.1412583043687,-13.747597694397,0.995669603347778,-8.64130732355002,-13.4734687805176,0.990115940570831
563,-17.9991143889674,-13.7592678070068,0.996090233325958,-14.998671583451,-13.5081405639648,0.99224865436554
564,-14.998671583451,-13.7409734725952,0.996426165103912,-10.495861677085,-13.5151510238647,0.992774844169617
565,-19.4993357917255,-13.7582979202271,0.995661318302155,-8.99751555047892,-13.482536315918,0.989920258522034
566,-17.3082499076219,-13.7749300003052,0.995303869247437,-4.75404438535559,-13.369873046875,0.991749286651611
567,-13.6740611607609,-13.8021974563599,0.831143796443939,-7.28694021550812,-13.3572416305542,0.558680891990662
568,-12.5659687290791,-13.7766342163086,0.995826423168182,-17.6817682241579,-13.3884553909302,0.988089859485626
569,-13.4979093368139,-13.7910404205322,0.996321439743042,-14.9984011615116,-13.3754167556763,0.991151750087738
570,-10.4968658152554,-13.7657279968262,0.995899260044098,-17.9991143889674,-13.4123363494873,0.990032076835632
571,-14.998671583451,-13.7700214385986,0.998916029930115,-13.4970381988322,-13.4102582931519,0.997034072875977
572,-8.96696355121858,-13.7398128509521,0.96132618188858,-11.2752155975159,-13.3954381942749,0.9813072681427
573,-10.9723176897879,-13.7274494171143,0.977242410182953,-18.1025626648294,-13.3983201980591,0.935098648071289
574,-17.5799967419085,-13.7237062454224,0.997231781482697,-17.9405122623138,-13.4567613601685,0.995427250862122
575,-14.998671583451,-13.7675552368164,0.998941481113434,-17.9988439670279,-13.5091419219971,0.998088538646698
576,-14.8949528856495,-13.7535696029663,0.996138393878937,-9.3085245863396,-13.4786901473999,0.991889894008636
577,-21.4995571944837,-13.792197227478,0.993335247039795,-15.8556052141758,-13.4727048873901,0.982880651950836
578,-13.4975790427112,-13.8325834274292,0.99580055475235,-14.9984011615116,-13.4590854644775,0.98946475982666
579,-16.6685496049142,-13.8300943374634,0.995037257671356,-9.26400950883173,-13.4624938964844,0.98626697063446
580,-17.1013871162401,-13.8470325469971,0.995841801166534,-16.9645316551788,-13.4389419555664,0.991081833839417
581,-14.0800338145728,-13.8654327392578,0.995661437511444,-9.60176956670882,-13.4274234771729,0.985529124736786
582,-13.9193636162844,-13.8382339477539,0.987564623355865,-5.4721309732883,-13.4139385223389,0.975798845291138
583,-14.5287949467583,-13.8038396835327,0.996024250984192,-21.4995571944837,-13.4341325759888,0.990613460540771
584,-19.9947028255516,-13.8391180038452,0.995304584503174,3.37858893895644,-13.3069171905518,0.985241949558258
585,-14.595847935184,-13.8506345748901,0.994410574436188,-15.6766506208514,-13.3404750823975,0.987989068031311
586,-10.1700825398548,-13.7751045227051,0.999716222286224,-12.1650678281782,-13.325813293457,0.997360050678253
587,-13.4981797587534,-13.7651023864746,0.770523309707642,-11.9970872180135,-13.3258085250854,0.90224689245224
588,-10.6524350779023,-13.6861200332642,0.99524974822998,-12.1417477608487,-13.2867603302002,0.988114833831787
589,-19.9995571944837,-13.7099771499634,0.996070981025696,-8.69713623719485,-13.2240676879883,0.990074038505554
590,-14.9984011615116,-13.712607383728,0.998789250850677,-13.4981797587534,-13.2103958129883,0.997446894645691
591,-11.9066446195189,-13.6762027740479,0.995543539524078,-17.0461440919377,-13.1982164382935,0.990024328231812
592,-15.5053032426195,-13.7095899581909,0.995591700077057,-9.50650536454225,-13.161602973938,0.990046322345734
593,-18.003041090538,-13.768214225769,0.994993269443512,-11.6837732111595,-13.1939191818237,0.988552212715149
594,-10.495861677085,-13.7257452011108,0.999803602695465,-14.9981307395721,-13.1995639801025,0.999525189399719
595,-15.1687494455393,-13.7441177368164,0.994775652885437,-11.4175443933859,-13.1702976226807,0.988723039627075
596,-14.9981307395721,-13.717490196228,0.99455863237381,-14.9984011615116,-13.2034940719604,0.987808585166931
597,-17.0950327563143,-13.7860174179077,0.994977533817291,-17.0705429603959,-13.2226495742798,0.989027619361877
598,-17.9988439670279,-13.8160257339478,0.988949954509735,-14.9984011615116,-13.2326536178589,0.954942226409912
599,-12.0825679444074,-13.7599124908447,0.946660935878754,-9.69622157310084,-13.2208290100098,0.886894166469574
600,-16.5489897006881,-13.7423372268677,0.344842493534088,-16.4083133478352,-13.2859477996826,0.377958863973618
601,-10.9537916897551,-13.7679395675659,0.990566194057465,-14.4973086207717,-13.2582588195801,0.955637097358704
602,-16.448168348528,-13.7776041030884,0.976536631584167,-17.3164768172694,-13.2637100219727,0.916490375995636
603,-15.1555051553628,-13.8294353485107,0.995632231235504,-13.5132844294532,-13.2909708023071,0.990801155567169
604,-16.8822561514195,-13.8856964111328,0.990706503391266,-17.8259641442159,-13.2909364700317,0.978313207626343
605,-14.9978004454693,-13.9118671417236,0.993776321411133,-17.9991143889674,-13.3694276809692,0.98718124628067
606,-11.5858889050859,-13.9141616821289,0.992996752262115,-15.8942536322309,-13.3937654495239,0.984816372394562
607,-5.16051000955847,-13.8385725021362,0.993678271770477,-13.9940043162433,-13.3670663833618,0.985411167144775
608,-19.4080314438994,-13.8321580886841,0.994447588920593,-3.10546631798571,-13.3268947601318,0.990206062793732
609,-11.7191803822908,-13.8457126617432,0.993471264839172,-10.3147875011553,-13.2990074157715,0.989166975021362
610,-15.7028505086636,-13.9212989807129,0.993789613246918,-11.4984011615116,-13.3155536651611,0.990540385246277
611,-17.0762854470061,-13.9802131652832,0.994661867618561,-9.68618229421917,-13.2367973327637,0.993324458599091
612,1.18619583845709,-13.9171533584595,0.988266408443451,0.236827435648251,-13.1389789581299,0.97700023651123
613,-7.32126349447796,-13.8533334732056,0.991750538349152,-2.98525767652948,-13.1069641113281,0.981978356838226
614,-14.2962943919571,-13.8951091766357,0.639020681381226,-12.0888897969009,-13.0766286849976,0.470607936382294
615,-15.0774162757598,-13.8756332397461,0.998060166835785,-10.7954101055563,-13.0486125946045,0.997509479522705
616,-11.0995311101047,-13.843113899231,0.994469404220581,-14.9042983916146,-13.0637254714966,0.99280834197998
617,-14.9984011615116,-13.8576431274414,0.994514584541321,-13.4981797587534,-13.0582942962646,0.992915868759155
618,-13.4468170289504,-13.8481330871582,0.992833018302917,-19.6742559896644,-13.0844640731812,0.98858380317688
619,-11.0846440306915,-13.8497772216797,0.851982533931732,-12.8402378962054,-13.0929594039917,0.786439657211304
620,-14.2433863782797,-13.8471422195435,0.984172701835632,-11.1688846045684,-13.1277894973755,0.969848215579987
621,-20.282890527817,-13.8645963668823,0.998164474964142,-7.82074138454611,-13.0440034866333,0.997810065746307
622,-15.8625895662723,-13.8869380950928,1,-18.8323987031194,-13.0861253738403,1
623,-17.4660496727453,-13.9081773757935,0.994723081588745,-14.7771725789259,-13.0966281890869,0.993182599544525
624,-15.1302057562735,-13.9180498123169,0.997159957885742,-12.9289438195725,-13.0891456604004,0.996190309524536
625,-13.3222538328275,-13.8623113632202,0.994463860988617,-16.6472625371155,-13.1319818496704,0.994188070297241
626,-0.178546065508342,-13.8035316467285,0.994521737098694,-21.9586827068309,-13.1483783721924,0.992724120616913
627,-8.99724512853944,-13.7656278610229,0.982721984386444,-10.4943647980147,-13.1237468719482,0.982232570648193
628,-13.7730402276115,-13.7390918731689,0.999945759773254,-18.9988439670279,-13.1792430877686,0.999685645103455
629,-10.480688879107,-13.7630729675293,0.995160400867462,-20.2493357917255,-13.2463722229004,0.994081437587738
630,-4.49516893840428,-13.6663799285889,0.994343757629395,-7.49648288190232,-13.1951093673706,0.99171257019043
631,-10.0618443550267,-13.6317462921143,0.994653940200806,-14.9955169742076,-13.2104005813599,0.994443953037262
632,-18.4977564692625,-13.6340799331665,0.992715537548065,-14.8957112476061,-13.2365522384644,0.987354218959808
633,-13.4976389148744,-13.6313800811768,0.994815289974213,-7.49487802768975,-13.2169990539551,0.992150664329529
634,-13.4979093368139,-13.7024641036987,0.999163866043091,-16.4986225642697,-13.2202005386353,0.998922526836395
635,-9.81946489931565,-13.677939414978,0.994868516921997,-12.8972169417798,-13.2061920166016,0.992216110229492
636,-15.3057974521621,-13.6693801879883,0.680081367492676,-9.04343065685813,-13.2006254196167,0.496148556470871
637,-6.82057122443839,-13.6198244094849,0.994727432727814,-8.65202006401966,-13.1538791656494,0.991606950759888
638,-3.21017314629919,-13.5165987014771,0.994990646839142,-13.6058890002559,-13.1485748291016,0.993067145347595
639,-1.51646979991595,-13.4945201873779,0.995071828365326,-8.21302561588368,-13.113317489624,0.991991102695465
640,-13.4981797587534,-13.4759864807129,0.995346367359161,-10.4971362371948,-13.0698728561401,0.992588639259338
641,-14.9133952915424,-13.4730758666992,0.8590047955513,-9.27855862077169,-13.0018014907837,0.641169250011444
642,-16.2711699963756,-13.4639549255371,0.995394349098206,-8.99735763995301,-12.9936771392822,0.992476880550385
643,-14.5470857572935,-13.4382247924805,0.997060716152191,-9.26926409610279,-12.9621829986572,0.994889140129089
644,-8.89851608385016,-13.4514188766479,0.99566262960434,-12.8523464254201,-12.9589624404907,0.991058111190796
645,-10.5284501806929,-13.4424057006836,0.993746519088745,-16.5268066966597,-13.0332832336426,0.985547184944153
646,-10.4974665312976,-13.3773956298828,0.996160626411438,-13.4976389148744,-13.0626344680786,0.991198718547821
647,-19.1409020567858,-13.4720277786255,0.530118882656097,-9.09982715067049,-13.0535230636597,0.371206521987915
648,-14.6752787156893,-13.4695739746094,0.996525704860687,-8.12063383077436,-13.0207080841064,0.991133630275726
649,-15.8316267991588,-13.4482860565186,0.995644807815552,-13.5964999060205,-13.0404071807861,0.98442530632019
650,-10.0005180639368,-13.4419078826904,0.996371984481812,-11.5990079325545,-13.0622529983521,0.986528396606445
651,-14.7055968968237,-13.42995262146,0.998395383358002,-12.1099116023288,-13.0529947280884,0.996719181537628
652,-4.23609027289639,-13.3232002258301,0.996611416339874,-17.6968423534053,-13.1391382217407,0.990207970142365
653,-7.38334902891809,-13.3088111877441,0.88614422082901,-14.118187781661,-13.121431350708,0.918395221233368
654,-8.10125174445294,-13.2578983306885,0.9960697889328,-17.2755630656386,-13.1475687026978,0.986175954341888
655,-14.8074473789017,-13.2207183837891,0.996271848678589,-10.1536771098638,-13.1440553665161,0.994455277919769
656,-10.7264406283186,-13.2371797561646,0.996441066265106,-12.0945276943018,-13.2050256729126,0.985944032669067
657,-10.245568792696,-13.2154979705811,0.960656821727753,-11.080646592321,-13.1989316940308,0.838603079319
658,-16.105337564933,-13.19287109375,0.996271133422852,-14.3827427359435,-13.1764936447144,0.985834062099457
659,-10.2796682944686,-13.1663103103638,0.998745203018188,-4.38765659295171,-13.1510353088379,0.998146772384644
660,-12.0748305238484,-13.1981134414673,0.990078806877136,-18.4778126129176,-13.1842908859253,0.954526603221893
661,-12.5606797587534,-13.2193489074707,0.991862058639526,-16.4293995225834,-13.1847620010376,0.978844106197357
662,-9.03060677108615,-13.1994724273682,0.996751308441162,-11.7054091794309,-13.1877145767212,0.983562648296356
663,-5.30112938114684,-13.1248245239258,0.996963679790497,-7.09253949913308,-13.1150064468384,0.985776245594025
664,-13.4973086207717,-13.0892353057861,0.996741950511932,-14.9978004454693,-13.1127510070801,0.983900427818298
665,-6.0763208932681,-13.0297546386719,0.970163941383362,-7.43969760699481,-13.0523567199707,0.975273787975311
666,-14.9829975642697,-13.0585222244263,0.997263669967651,-12.6390261615116,-13.0066213607788,0.985966384410858
667,-13.8970673053762,-13.0411767959595,0.938834249973297,-9.70212449725662,-12.9613084793091,0.967417418956757
668,-14.4500199007318,-13.0204458236694,0.99690979719162,-7.53277812346329,-12.9015436172485,0.981721639633179
669,-18.752190369786,-13.0464448928833,0.996939063072205,-13.6207679862092,-12.9014978408813,0.981904685497284
670,-19.2045381038642,-13.0799407958984,0.99666154384613,-9.81127174908466,-12.8489952087402,0.978957414627075
671,-7.2318433155745,-13.0980644226074,0.994745135307312,-5.94743559222694,-12.8128995895386,0.983215987682343
672,-8.69496296429017,-13.1287431716919,0.88356477022171,-8.55452937405458,-12.8023509979248,0.447741538286209
673,-10.4782357620668,-13.1210842132568,0.996823668479919,-13.207915331552,-12.8024873733521,0.986884236335754
674,-10.4977369532371,-13.0910806655884,0.994019389152527,-14.9978004454693,-12.8124895095825,0.975414872169495
675,-13.6867272308001,-13.0711364746094,0.98611581325531,-9.89122334407656,-12.8081426620483,0.993213772773743
676,-6.5375356717147,-13.0294532775879,0.996761918067932,-14.2854825012245,-12.8656368255615,0.98548686504364
677,-11.2139436835057,-13.0575256347656,0.996978521347046,-8.87620845704852,-12.8148221969604,0.989914298057556
678,-8.7508932522294,-13.0655708312988,0.995801985263824,-4.1048969824184,-12.7258434295654,0.975785255432129
679,-5.74564027432687,-13.0120716094971,0.996354103088379,-7.9356837092416,-12.6854200363159,0.987306237220764
680,-20.9995571944837,-13.1110305786133,0.996735870838165,-14.9975300235298,-12.7036905288696,0.990094900131226
681,-11.3156769090199,-13.0546054840088,0.990170776844025,-13.0224875402491,-12.6624212265015,0.863655686378479
682,-18.9012521097379,-13.0979595184326,0.925792753696442,-2.46658163189209,-12.5713310241699,0.736514329910278
683,-16.7759873531367,-13.1018304824829,0.99610561132431,-13.2123001206796,-12.5431098937988,0.983460485935211
684,-12.440305650178,-13.0647773742676,0.997794985771179,-9.73902270188449,-12.5180501937866,0.990957140922546
685,-8.31685465987399,-13.030237197876,0.998868644237518,-13.8341643040387,-12.530291557312,0.994173586368561
686,-11.9970872180135,-13.0113162994385,0.995827496051788,-22.4997785972418,-12.5717449188232,0.97962886095047
687,-6.20413386924478,-12.9502439498901,0.737305045127869,-18.1512829914181,-12.6881427764893,0.730954349040985
688,-12.0447270401058,-12.9349575042725,0.999768197536469,-13.6783350243336,-12.7457418441772,0.999323487281799
689,-15.8840905445653,-12.9653348922729,0.996531307697296,-16.3251986468308,-12.7248029708862,0.991583406925201
690,-14.998671583451,-13.0139465332031,0.997128069400787,-19.4993357917255,-12.7191247940063,0.992323875427246
691,-15.7129082785554,-13.0888032913208,0.99642425775528,-17.1776858175388,-12.7590427398682,0.990211009979248
692,-11.4981307395721,-13.0454626083374,0.995094895362854,-8.41787163507757,-12.6851663589478,0.991404056549072
693,-7.78727782378838,-13.007698059082,0.996469020843506,-15.8138280511443,-12.7140016555786,0.991572022438049
694,-22.7497785972418,-13.0299844741821,0.99698406457901,-8.8403237591806,-12.710277557373,0.993817389011383
695,-7.78947358688263,-13.0020723342896,0.99577397108078,-16.7930150876342,-12.7611837387085,0.993146300315857
696,-10.5929182905872,-12.9710836410522,0.994552433490753,-12.9925089056193,-12.7521781921387,0.988491058349609
697,-20.9995571944837,-12.9818716049194,0.995920419692993,-11.9970872180135,-12.7102785110474,0.992489099502563
698,-3.25047603814498,-12.9618997573853,0.99586945772171,-3.30118621553732,-12.6035270690918,0.990765571594238
699,-17.4257111962563,-12.9433736801147,0.99595046043396,-5.44315052021191,-12.5385007858276,0.991724669933319
700,-15.5264889700595,-12.9522972106934,0.994992434978485,-7.81553380823258,-12.5027542114258,0.993448913097382
701,-13.4973086207717,-12.9122838973999,0.995746672153473,-13.4979093368139,-12.4827470779419,0.990363419055939
702,-14.5147995107513,-12.9055423736572,0.995791554450989,-10.6886988104981,-12.4344434738159,0.990811109542847
703,-8.13420605938748,-12.9378023147583,0.994718372821808,-19.6093132920447,-12.4351758956909,0.991856336593628
704,-10.7486225642697,-12.9388561248779,0.995801270008087,-2.52750952169326,-12.3473472595215,0.991974890232086
705,-9.48938574136141,-12.8821258544922,0.965278625488281,-13.672351377829,-12.3385057449341,0.94702422618866
706,-15.1967194500829,-12.8680028915405,0.999187409877777,-15.8714599345119,-12.3483057022095,0.997728645801544
707,-14.1597625514266,-12.8624105453491,0.989101588726044,-9.72617020637913,-12.3631772994995,0.970509648323059
708,-15.1359897604027,-12.8833341598511,0.994535207748413,-15.7354031068128,-12.3580932617188,0.988259434700012
709,-12.4035851641588,-12.9225006103516,0.994976282119751,-8.88870868796594,-12.327582359314,0.990125775337219
710,-12.7075735214339,-12.9692296981812,0.928873956203461,-16.9423311735412,-12.3389558792114,0.856403708457947
711,-11.5769562267387,-12.920823097229,1,-10.3255333918961,-12.3567085266113,1
712,-10.4971961093581,-12.8965291976929,0.994852364063263,-10.4974665312976,-12.3690824508667,0.99007260799408
713,-8.87583421320883,-12.8357076644897,0.994707584381104,-9.06684306712357,-12.3295373916626,0.990250051021576
714,-16.8374652881284,-12.8479661941528,0.995708227157593,-9.29287336559089,-12.3215179443359,0.994243919849396
715,-14.9978004454693,-12.8179569244385,0.996070027351379,-10.4971362371948,-12.3315143585205,0.995777368545532
716,-17.9524009258251,-12.8222513198853,0.997191607952118,-18.0057703506289,-12.4198589324951,0.993718981742859
717,-15.3185321527864,-12.833212852478,0.993252217769623,-6.45540240062122,-12.4143161773682,0.99223655462265
718,-0.439900751616032,-12.7523727416992,0.995089709758759,-10.2856000562311,-12.3650093078613,0.990196824073792
719,-3.95548218534619,-12.688756942749,0.99396139383316,-13.6208442057214,-12.35582447052,0.988983809947968
720,-6.98174092771181,-12.665322303772,0.995033264160156,-6.23658301633285,-12.2774076461792,0.973587930202484
721,-13.4858956835646,-12.655237197876,0.987062036991119,-20.6186048135313,-12.3248844146729,0.968772530555725
722,-4.78730694099354,-12.6273727416992,0.51893949508667,-9.94093094641574,-12.3159894943237,0.773139894008636
723,-16.7374122613078,-12.665807723999,0.996141970157623,-5.92433269791793,-12.2348012924194,0.9874147772789
724,-19.499065369786,-12.6786012649536,0.997494220733643,-14.9984011615116,-12.2151870727539,0.998085021972656
725,-7.49514844962923,-12.6285781860352,0.99593061208725,-20.9995571944837,-12.2351922988892,0.99554717540741
726,-11.997357639953,-12.609260559082,0.996074795722961,-16.4986225642697,-12.2831268310547,0.992335736751556
727,-14.452946616057,-12.5622825622559,0.99564003944397,-9.57041520678303,-12.2412242889404,0.9934983253479
728,-9.16567981008608,-12.5334033966064,0.994565844535828,-12.3911447017306,-12.2238426208496,0.990383207798004
729,-9.4336059787381,-12.4851713180542,0.988352119922638,-9.53667889471578,-12.225661277771,0.958582580089569
730,-12.6924310122578,-12.4557781219482,0.976532459259033,-15.3610546874748,-12.2149715423584,0.983390152454376
731,-20.2493357917255,-12.4969062805176,0.9953972697258,-4.51836658340676,-12.1810827255249,0.991528630256653
732,-7.41413319796426,-12.453537940979,0.995721042156219,-9.60822256440926,-12.2086553573608,0.994031965732574
733,-9.12713777224346,-12.4175271987915,0.996209859848022,-3.01125433414487,-12.0854005813599,0.996876955032349
734,-8.99564027432687,-12.3442001342773,0.995156168937683,-8.99724512853944,-12.1679048538208,0.99342268705368
735,-3.95559461011533,-12.2732639312744,0.906324505805969,-13.6535735753047,-12.1544189453125,0.844563364982605
736,-7.65596388186996,-12.2565031051636,0.994152843952179,-10.2455886877488,-12.1416215896606,0.992481887340546
737,-10.4968658152554,-12.2364950180054,0.995190739631653,-13.4981797587534,-12.151629447937,0.994652271270752
738,-9.85542503156434,-12.2311820983887,0.997457802295685,-17.3395813150374,-12.1862821578979,0.997619092464447
739,-14.5152278748418,-12.1946201324463,0.992855131626129,-8.08179472604572,-12.1821794509888,0.985956311225891
740,-10.6364553843139,-12.1655406951904,0.999195754528046,-10.0352819190182,-12.1590938568115,0.999271094799042
741,-13.5533888990157,-12.1765184402466,0.995705306529999,-17.4988439670279,-12.1621112823486,0.995183169841766
742,-11.8609940035894,-12.1522226333618,0.992162525653839,-9.58777490616446,-12.1626529693604,0.987392008304596
743,-12.9883425466583,-12.1187906265259,0.998936951160431,-10.5338223369945,-12.1549863815308,0.999286353588104
744,-13.6037011692499,-12.1395101547241,0.99360716342926,-13.6037011692499,-12.1456899642944,0.994551360607147
745,-10.9476421402235,-12.1113691329956,0.925265848636627,-10.0994794650004,-12.1369037628174,0.809678316116333
746,-14.1014939450167,-12.1053924560547,0.999998450279236,-9.00202045443062,-12.0969266891479,0.999761283397675
747,-11.2419909051013,-12.0663719177246,0.994035065174103,-16.5632169530699,-12.093544960022,0.994363307952881
748,-15.7556194436083,-12.0514163970947,0.994019031524658,-11.8050842247063,-12.0722560882568,0.99481201171875
749,-13.4975790427112,-12.0608501434326,0.994674324989319,-13.4976389148744,-12.0975980758667,0.994978725910187
750,-15.3101087891623,-12.0525913238525,0.985540211200714,-11.858084955978,-12.0672636032104,0.961853384971619
751,-8.82562113544718,-12.0384035110474,0.570094764232635,-11.6674152460186,-12.0483980178833,0.297021061182022
752,-16.4986225642697,-12.0387392044067,0.994588732719421,-17.9988439670279,-12.0529470443726,0.993361711502075
753,-9.43061249139689,-12.0005741119385,0.994057297706604,-8.0365570036926,-12.0164356231689,0.993489742279053
754,-6.53343303993329,-11.9315814971924,0.994254410266876,-19.7287238611503,-12.0291204452515,0.995867133140564
755,-8.82998607070172,-11.8904609680176,0.993440806865692,-7.87085056620681,-11.9615983963013,0.994414925575256
756,-8.99637399055772,-11.8731994628906,0.993301630020142,-16.4988929862092,-11.9656295776367,0.994611859321594
757,-15.6673030280502,-11.9432439804077,0.994315207004547,-13.4910789857793,-11.9622774124146,0.994710922241211
758,-5.35248361579965,-11.8495397567749,0.992513477802277,-15.0744291592086,-12.0420703887939,0.994172513484955
759,-9.32311521571058,-11.8335657119751,0.992992401123047,-16.5215712397552,-12.0834493637085,0.991479873657227
760,-10.7925432568343,-11.8008308410645,0.993781983852386,-9.85609501370177,-12.0725002288818,0.994653344154358
761,-17.6433451581981,-11.8046112060547,0.992020428180695,-12.8725790427112,-12.0937414169312,0.995541870594025
762,-9.12910041933366,-11.8733797073364,0.994431555271149,-10.7137967153463,-12.1667461395264,0.996484875679016
763,-14.8363418625153,-11.9234809875488,0.994503498077393,-15.7880962484802,-12.2520999908447,0.99554705619812
764,-12.1682368008423,-11.9092931747437,0.991732001304626,-12.7586700106867,-12.2565641403198,0.99485319852829
765,-16.8068066966597,-11.920823097229,0.994690597057343,-13.0286225642697,-12.2714519500732,0.997171819210052
766,-7.44586503889474,-11.8964653015137,0.99383932352066,-15.496485812133,-12.2754001617432,0.996134161949158
767,-14.9978603176326,-11.8964614868164,0.993782341480255,-17.9991143889674,-12.3054065704346,0.995126366615295
768,-1.82959442494882,-11.8190135955811,0.984631359577179,-10.9180132114268,-12.2470321655273,0.986824452877045
769,-11.2003856411063,-11.819785118103,0.990814387798309,-8.68913482658347,-12.2193574905396,0.993310213088989
770,-5.41117803409255,-11.7609043121338,0.985652327537537,-9.93532522120671,-12.2111339569092,0.984846472740173
771,-11.1036622119319,-11.6997098922729,0.963995397090912,-22.7497785972418,-12.3106603622437,0.971022367477417
772,-15.3501454069093,-11.6962928771973,0.82135283946991,-14.5696885541174,-12.2822418212891,0.85853111743927
773,-7.08135914874726,-11.6270608901978,0.999792993068695,-10.3558327310284,-12.2527666091919,0.999772369861603
774,-4.78333769273326,-11.5580816268921,0.994387328624725,-8.12965513276278,-12.2207717895508,0.9944207072258
775,-16.7329124340613,-11.5808191299438,0.993824124336243,-16.9659972516994,-12.2228975296021,0.992720603942871
776,-12.5062906566998,-11.6630048751831,0.997861564159393,-12.2399109502811,-12.1581058502197,0.998475730419159
777,-14.7623041563095,-11.7014379501343,0.993876516819,-8.14487576550412,-12.1424417495728,0.995273649692535
778,-12.786086541215,-11.6948585510254,0.993818342685699,-9.65004637293307,-12.0801153182983,0.993802011013031
779,-13.6788551224093,-11.7161798477173,0.994590163230896,-2.84053880629287,-11.9640579223633,0.996549963951111
780,-13.6901682297846,-11.7774801254272,0.988306820392609,-10.2788124320477,-11.9826059341431,0.988567590713501
781,-13.4981797587534,-11.800389289856,0.990781962871552,-14.9984011615116,-11.9826250076294,0.969047486782074
782,-12.2981797587534,-11.7590579986572,0.989590704441071,-15.1579838953001,-11.9843740463257,0.987074911594391
783,-14.9984011615116,-11.7690629959106,0.992449164390564,-11.9976879340558,-12.0143938064575,0.987294018268585
784,-9.68790933681391,-11.7436628341675,0.994255721569061,-6.74191483443669,-11.949348449707,0.99263060092926
785,-6.09005625076458,-11.7188005447388,0.999998688697815,-18.7493357917255,-11.9883623123169,0.999831438064575
786,-10.4058152267337,-11.6861343383789,0.998124420642853,-11.1890664582608,-12.0026664733887,0.995250463485718
787,-6.64685976025462,-11.6849756240845,0.995056986808777,-0.506992400868042,-11.9483661651611,0.994914174079895
788,-3.91942411686628,-11.6897039413452,0.995697617530823,-15.7218770348818,-11.9624719619751,0.993565857410431
789,-14.4086945067158,-11.775652885437,0.990918636322021,-2.6742101417564,-11.9255466461182,0.981934428215027
790,-11.6524294194472,-11.7633476257324,0.730686068534851,-15.8563808249535,-11.961275100708,0.702055394649506
791,-14.0358566068229,-11.7574968338013,0.997014760971069,-13.6792522253413,-11.9906139373779,0.993154764175415
792,-7.56816271150383,-11.6994771957397,0.993238687515259,-17.032968596108,-12.0441846847534,0.991042137145996
793,-11.2454707938062,-11.6774654388428,0.938609540462494,-9.08854454313236,-12.0429792404175,0.861031413078308
794,-4.55924219844978,-11.6485376358032,0.927123844623566,-12.7104546253384,-12.0420331954956,0.80239325761795
795,-9.87057385429917,-11.6441526412964,0.988250494003296,-11.7946399357445,-12.0104846954346,0.981079816818237
796,-20.7495571944837,-11.7124996185303,0.996330082416534,-13.976995282873,-12.0136814117432,0.997264385223389
797,-11.8332580496165,-11.663782119751,0.933806419372559,-13.608811592453,-12.0437421798706,0.960995554924011
798,-15.8402908356716,-11.6715478897095,0.98608136177063,-15.7498139629228,-12.0946025848389,0.988068163394928
799,-4.4912544570782,-11.5959453582764,0.99379551410675,-14.2590489419416,-12.0990180969238,0.993583619594574
800,-13.1599619060317,-11.6170082092285,0.989951908588409,-20.6164926783546,-12.1591358184814,0.982764780521393
801,-16.5025273582506,-11.6289873123169,0.397881150245667,-6.36860904519302,-12.1208591461182,0.706670999526978
802,-16.8756326075908,-11.7132520675659,0.993655204772949,-14.8632654558448,-12.1019697189331,0.993946611881256
803,-16.1951630211862,-11.7719974517822,0.99410617351532,-15.9312147876966,-12.1140575408936,0.9942427277565
804,-10.2484501806929,-11.7863121032715,0.416253358125687,-13.2159878824292,-12.0869941711426,0.745341539382935
805,-3.30219996805276,-11.7096109390259,0.457248598337173,-10.2376212709703,-12.0875539779663,0.739754557609558
806,-14.7486225642697,-11.7364253997803,0.995100677013397,-14.3497701791917,-12.1025886535645,0.996955513954163
807,-8.91968508278221,-11.7275857925415,0.990208506584167,-9.88608011462528,-12.0946245193481,0.992838680744171
808,-11.8917578048682,-11.6994953155518,0.995001375675201,-10.7726552832289,-12.0705575942993,0.997647106647491
809,-18.6421929345827,-11.7552461624146,0.990986526012421,-15.2596664778504,-12.1430368423462,0.992220461368561
810,-11.9970872180135,-11.7547264099121,0.99060469865799,-16.4988929862092,-12.1298446655273,0.992195963859558
811,-20.1766758385515,-11.8055000305176,0.941800236701965,-11.3899519240671,-12.096248626709,0.903961658477783
812,-14.1277589655906,-11.8394804000854,0.990677118301392,-17.7483521423302,-12.1365346908569,0.991479873657227
813,-6.82963781593469,-11.8496713638306,0.986593067646027,-8.77221068532108,-12.1477327346802,0.986163556575775
814,-9.09284472985285,-11.8203086853027,0.993168234825134,-19.0519673706729,-12.1747608184814,0.996632993221283
815,-5.99492704687107,-11.8197660446167,0.990731537342072,-14.9984011615116,-12.2251510620117,0.99051558971405
816,-16.5760374658904,-11.8303861618042,0.990603625774384,-11.3891874343196,-12.2168197631836,0.989385962486267
817,-5.32531574116854,-11.7732400894165,0.990527749061584,-16.5120078622135,-12.2622184753418,0.99068146944046
818,-16.4986225642697,-11.7868976593018,0.990491926670074,-8.99637399055772,-12.2719755172729,0.991165935993195
819,-12.9167137323609,-11.7479944229126,0.988733291625977,-15.1324158300847,-12.2820520401001,0.990369856357574
820,-13.4979093368139,-11.7099514007568,0.990733027458191,-13.4979093368139,-12.3066301345825,0.991894662380219
821,-15.6737175635705,-11.7662305831909,0.984902799129486,-12.2380837011941,-12.3485679626465,0.988120317459106
822,-11.279686835116,-11.7834615707397,0.990220129489899,-15.7481307395721,-12.3965253829956,0.991724729537964
823,-6.99226426232528,-11.7602214813232,0.98950469493866,-15.2211640784084,-12.4099473953247,0.990932703018188
824,-8.11141118487425,-11.7443132400513,0.989505112171173,-13.8322263195425,-12.4021768569946,0.989002466201782
825,-14.279112766429,-11.7482614517212,0.988103330135345,-3.8720139007005,-12.3620481491089,0.989983916282654
826,-10.4971961093581,-11.7746601104736,0.990014433860779,-14.9978004454693,-12.3667964935303,0.991695821285248
827,-7.6144746148064,-11.7506628036499,0.990670204162598,-12.8977943904686,-12.3936071395874,0.991914629936218
828,-11.0942999987516,-11.7662868499756,0.990312099456787,-14.2390597227397,-12.4611682891846,0.990395128726959
829,-15.971135653275,-11.8344554901123,0.992548048496246,-9.40606489740654,-12.4709720611572,0.995404005050659
830,-4.46350512846129,-11.7242155075073,0.990225255489349,-0.25185917979951,-12.3726663589478,0.990314543247223
831,-14.6294242520334,-11.7463073730469,0.973895072937012,-14.1015552861796,-12.3798608779907,0.970265746116638
832,-16.4190774671143,-11.7297592163086,0.993144392967224,-9.2205291596825,-12.4248876571655,0.992412745952606
833,-7.49702372578128,-11.6679000854492,0.990351736545563,-13.4981797587534,-12.426794052124,0.99161833524704
834,-12.3194779642649,-11.6670951843262,0.989622354507446,-15.7976421721129,-12.4671840667725,0.987282633781433
835,-15.7111671189584,-11.7163896560669,0.989677548408508,-12.6090107484313,-12.4590158462524,0.989217877388
836,-5.46829973322016,-11.6728649139404,0.880021512508392,-16.0410991217918,-12.415958404541,0.724252462387085
837,-15.8421376447813,-11.737117767334,0.994965970516205,-11.0267577014976,-12.3684616088867,0.996531426906586
838,-8.50425306521613,-11.7135143280029,0.999942898750305,-13.4914567170671,-12.3672161102295,0.99992048740387
839,-16.5794356741079,-11.718150138855,0.98853474855423,-11.1613425525296,-12.3327894210815,0.98553603887558
840,-10.6278065500459,-11.6890115737915,0.764471888542175,-10.2360639502803,-12.2710342407227,0.553408622741699
841,-11.9970872180135,-11.6642389297485,0.989230453968048,-11.9976879340558,-12.2365016937256,0.983575642108917
842,-10.4965953933159,-11.6575622558594,0.994705736637115,-10.4977369532371,-12.2503681182861,0.995532751083374
843,-11.1310054386951,-11.6798534393311,0.545187890529633,-18.3667684953298,-12.2673873901367,0.450720876455307
844,-9.59739150871772,-11.5921716690063,0.989309787750244,-8.861808343991,-12.2675313949585,0.984120905399323
845,-6.36783102999304,-11.5826940536499,0.987322628498077,-12.5549433026122,-12.2392768859863,0.979842126369476
846,-8.89265683826669,-11.5713586807251,0.980755984783173,-14.12337858578,-12.2468166351318,0.889746725559235
847,-3.16682962550488,-11.4524726867676,0.527755081653595,-18.8715258664,-12.2926445007324,0.49062567949295
848,-14.9388880509954,-11.5303964614868,0.995628952980042,-7.9464726842008,-12.3236131668091,0.992371320724487
849,-15.0503333154273,-11.5145597457886,0.987523376941681,-10.4981797587534,-12.3573141098022,0.92144900560379
850,-14.1380234209918,-11.5053033828735,0.986657083034515,-14.5855790860088,-12.4024477005005,0.957263708114624
851,-19.4993357917255,-11.5453176498413,0.993530929088593,-8.99637399055772,-12.3724365234375,0.994390785694122
852,-4.49050933483581,-11.4784889221191,0.995764970779419,-13.4979093368139,-12.3911657333374,0.992164254188538
853,-13.4981797587534,-11.5142488479614,0.991438508033752,-14.9984011615116,-12.360426902771,0.972731530666351
854,-4.06199844007841,-11.4696712493896,0.990922749042511,-8.07794262388862,-12.3974294662476,0.937130987644196
855,-10.6419968771452,-11.4773550033569,0.989828586578369,-11.754277319729,-12.3846406936646,0.968402922153473
856,-16.9112023010553,-11.4887838363647,0.994550049304962,-8.09900599160136,-12.3328247070312,0.984120428562164
857,-10.7971117632308,-11.4663667678833,1,-9.67758559347322,-12.3325004577637,1
858,-14.9981307395721,-11.4654483795166,0.991119801998138,-14.9984011615116,-12.3275880813599,0.976439595222473
859,-11.9965439238766,-11.4627351760864,0.953212559223175,-5.67004866781636,-12.306131362915,0.847226798534393
860,-12.5988661359802,-11.462010383606,0.987237095832825,-7.96865569852385,-12.2463054656982,0.967958033084869
861,-6.10994029264702,-11.4255628585815,0.991844236850739,-12.6672761009,-12.2619171142578,0.998727738857269
862,-4.98976361249442,-11.3888463973999,0.990930020809174,-14.7658430219767,-12.2903728485107,0.976473987102509
863,-13.298671583451,-11.4183320999146,0.990755379199982,-9.57263891487444,-12.2937450408936,0.975957572460175
864,-13.2849375081839,-11.3946495056152,0.676044583320618,-11.0035713750497,-12.3051500320435,0.524570167064667
865,-14.5071730913361,-11.39137840271,0.398826271295547,-12.639022460644,-12.3194284439087,0.42778092622757
866,-14.764009265279,-11.3701229095459,0.998668193817139,-13.0068111183348,-12.2861022949219,0.998364269733429
867,-15.2488439670279,-11.3696584701538,0.991126000881195,-10.9751326313838,-12.3162336349487,0.964022219181061
868,-5.97594104862937,-11.4065647125244,0.991391897201538,-5.57352647781762,-12.2848196029663,0.972836673259735
869,-8.83003480530734,-11.4390621185303,0.995141744613647,-8.21990747617949,-12.2488136291504,0.954455137252808
870,-12.2495764067981,-11.4741802215576,0.992905616760254,-13.8905888401307,-12.299840927124,0.974545180797577
871,-6.3249851456195,-11.426441192627,0.994943678379059,-7.78173811326723,-12.2142610549927,0.988260805606842
872,-13.5083423603794,-11.4845819473267,0.935486733913422,-13.2682345400659,-12.2364435195923,0.418547362089157
873,-5.43863336277345,-11.4092559814453,0.993959903717041,-11.2244286738305,-12.2717771530151,0.973161697387695
874,-6.9182482110677,-11.3253841400146,0.991656064987183,-5.22434394940841,-12.2066173553467,0.981657147407532
875,-14.8494670618301,-11.3744134902954,0.997393488883972,-11.0777902887683,-12.1404714584351,0.987929463386536
876,-8.71211299594406,-11.3525114059448,0.900970876216888,-13.3289878395615,-12.1193408966064,0.998992383480072
877,-4.06381760989132,-11.2832508087158,0.99687671661377,-3.10149849974925,-12.0762147903442,0.99548077583313
878,-12.7427192024987,-11.3070983886719,0.995747148990631,-13.6712416118888,-12.0847492218018,0.98917692899704
879,-12.5320679790605,-11.3277540206909,0.993021905422211,-5.13846453378832,-12.0554285049438,0.986766993999481
880,-8.99670428466047,-11.3031158447266,0.994513750076294,-10.4961320990245,-12.0229949951172,0.99089640378952
881,-19.7555959208092,-11.2998237609863,0.993262588977814,-11.6248545487507,-12.0703706741333,0.985513269901276
882,-10.2944701766174,-11.3190269470215,0.994186401367188,-5.9807367829973,-12.0461874008179,0.987266063690186
883,0.110848409220303,-11.2574396133423,0.998763918876648,-10.5168673562744,-12.0962247848511,0.999536871910095
884,-11.997357639953,-11.2774515151978,0.993578314781189,-10.4974665312976,-12.1062259674072,0.993230223655701
885,-12.2680086000256,-11.3328676223755,0.99929666519165,-6.82007023514487,-12.0606698989868,0.997922956943512
886,-14.998671583451,-11.3818187713623,0.990963935852051,-11.9976879340558,-12.0723505020142,0.981775522232056
887,-8.34518860446416,-11.3674745559692,0.98682028055191,-3.23663523395334,-12.0039405822754,0.967353820800781
888,-8.1074665312976,-11.3558206558228,0.941253483295441,-18.1093357917255,-12.009072303772,0.900236904621124
889,-18.0962745672357,-11.3796949386597,0.993460059165955,-10.8172902485136,-12.027307510376,0.981233596801758
890,-8.23782795875427,-11.3637037277222,0.99563992023468,-7.37682573898774,-12.0095853805542,0.97877424955368
891,-13.0366627703819,-11.360258102417,0.993550002574921,-12.1456617731419,-11.97389793396,0.982931315898895
892,-7.34894551836474,-11.3301782608032,0.999058187007904,-1.76869509200511,-11.9217710494995,0.998865604400635
893,-2.17666444434415,-11.2581005096436,0.982281088829041,-12.6876988031902,-11.9361295700073,0.955958425998688
894,-13.9588784581197,-11.2604684829712,0.99529230594635,-13.8528422006059,-11.9377908706665,0.983122646808624
895,-3.92990409560629,-11.2136831283569,0.554786801338196,-14.9735368312116,-11.9702844619751,0.660714030265808
896,-14.2326032143649,-11.2145576477051,0.989943504333496,-10.3553226158963,-11.9793062210083,0.942190051078796
897,-8.24368616883269,-11.1945686340332,0.995411574840546,-13.4192208337559,-11.9583463668823,0.924839019775391
898,-11.990464653575,-11.1694679260254,0.995832979679108,-16.7636646535176,-11.9914035797119,0.988307297229767
899,-8.62720260119332,-11.136999130249,0.998902320861816,-1.77372639237345,-11.9132442474365,0.993784308433533
900,-2.93488663031989,-11.0544967651367,0.995424211025238,-6.81791324083222,-11.8796424865723,0.985544145107269
901,-10.2366024178258,-11.0639038085938,0.995116233825684,-14.887019628461,-11.9011068344116,0.977209985256195
902,-10.0048821786601,-11.0206117630005,0.992764174938202,-6.50798747626459,-11.8245010375977,0.952854692935944
903,-6.71038864461175,-11.002477645874,0.995177030563354,-13.6767047560505,-11.8621025085449,0.974184453487396
904,-13.2508892050831,-11.0472602844238,0.994955718517303,-14.2937445154892,-11.8258695602417,0.957804501056671
905,-12.9450647122412,-11.0746936798096,0.985866725444794,-12.467933748768,-11.8565168380737,0.301964521408081
906,-18.8132826846798,-11.1401395797729,0.66452294588089,-14.8959027905573,-11.8458299636841,0.407278597354889
907,-7.85766122563719,-11.0880765914917,0.994480133056641,-15.7484011615116,-11.860878944397,0.976686835289001
908,-13.2071012203303,-11.1404409408569,0.856882154941559,-12.2297647611226,-11.8419141769409,0.697748303413391
909,0.111117735707434,-11.0775451660156,0.994668304920197,-13.7990656133388,-11.8237648010254,0.986981093883514
910,-5.48702730301235,-11.0421762466431,0.992408156394958,-3.93307477042018,-11.7842769622803,0.947525918483734
911,-10.1437958116325,-10.9921779632568,0.67458176612854,-11.6684338850244,-11.7762498855591,0.456239819526672
912,-11.8911960639878,-11.0105924606323,0.992559194564819,-14.9815725767213,-11.8047018051147,0.960397899150848
913,-11.0949715690577,-10.985650062561,0.999951124191284,-7.52135534775833,-11.7495908737183,0.999844312667847
914,-17.9991143889674,-11.0245218276978,0.993509232997894,-13.4976389148744,-11.7545166015625,0.980181276798248
915,-10.4977369532371,-10.9824619293213,0.992047846317291,-10.4965953933159,-11.7376365661621,0.931942045688629
916,-17.8406599926388,-11.0517606735229,0.992238879203796,-11.2798728071336,-11.7095260620117,0.976014912128448
917,-10.4650302192223,-11.021541595459,0.990145087242126,-17.4232488352038,-11.7056865692139,0.906631588935852
918,-6.41463026752268,-11.0521087646484,0.464294016361237,-9.38230331867114,-11.6954488754272,0.349940598011017
919,-10.1915566139478,-11.0453834533691,0.991832733154297,-14.1067816172997,-11.7315654754639,0.983905613422394
920,-13.4975790427112,-11.0992918014526,0.992546737194061,-17.9988439670279,-11.7853231430054,0.98981499671936
921,-8.93355023150994,-11.0848245620728,0.601779699325562,-13.1364768788266,-11.7212343215942,0.567159414291382
922,-11.9185442574488,-11.0619468688965,0.985410094261169,-13.5306390179552,-11.7143077850342,0.957114517688751
923,-6.70365921080819,-11.0594291687012,0.986966729164124,-15.497751426288,-11.7485876083374,0.96199369430542
924,-13.7089602326596,-11.118932723999,0.987149834632874,-1.43377873646743,-11.7039480209351,0.976064741611481
925,-12.0613932874958,-11.0877885818481,0.989237427711487,-7.09084169075905,-11.6381130218506,0.979974806308746
926,-11.5043909388776,-11.0811109542847,0.98979926109314,-11.816962994411,-11.6352939605713,0.981679022312164
927,-10.0414262678305,-11.0496377944946,0.622311294078827,-13.1016127599216,-11.6683378219604,0.41175439953804
928,-9.83226954196344,-11.0299463272095,0.98771870136261,-9.62169013378207,-11.6681489944458,0.976350367069244
929,-7.23540136346514,-10.9869890213013,0.987721383571625,-8.99768793405575,-11.7091970443726,0.978822410106659
930,-2.96469563415718,-10.9154863357544,0.988685369491577,-15.0249420026632,-11.740837097168,0.98482346534729
931,-8.22412912584201,-10.8803253173828,0.988067388534546,-8.20613718491518,-11.6955556869507,0.984436631202698
932,-7.49555187175734,-10.8483085632324,0.996358454227448,-13.4981797587534,-11.6844902038574,0.994847416877747
933,-10.4971362371948,-10.8183012008667,0.992887794971466,-11.9982287779347,-11.684494972229,0.992574453353882
934,-11.9970872180135,-10.8336944580078,0.972409009933472,-10.4977369532371,-11.7095336914062,0.979466557502747
935,-11.9970872180135,-10.8730745315552,0.988008856773376,-10.4961320990245,-11.6545124053955,0.983859419822693
936,-16.3915875072469,-10.9129800796509,0.370883107185364,-16.6066412706878,-11.6906299591064,0.649495780467987
937,-14.4358677761252,-10.9649076461792,0.988857507705688,-6.46265165383498,-11.7303333282471,0.989376664161682
938,-19.1687572793288,-11.0665693283081,0.991288781166077,-13.6641822424075,-11.7166147232056,0.985096156597137
939,-6.26965359933821,-11.0123090744019,0.989851236343384,-15.2473086207717,-11.8004360198975,0.987105131149292
940,-18.5941517890783,-11.0585870742798,0.98947548866272,-15.3252419254476,-11.7968940734863,0.984235763549805
941,-15.9401084147317,-11.0712804794312,0.989537358283997,-13.9267165736979,-11.798544883728,0.9846071600914
942,-8.94320601540427,-11.0804491043091,0.989491820335388,-8.24374753164976,-11.7399492263794,0.980299055576324
943,-13.1902616266278,-11.0934143066406,0.963886737823486,-7.13695239583721,-11.7269401550293,0.904390811920166
944,-17.6868357917255,-11.1809320449829,0.991505444049835,0.29368598264385,-11.6402454376221,0.989592552185059
945,-11.9979583559952,-11.1951141357422,0.992936670780182,-13.4976389148744,-11.6515979766846,0.983915507793427
946,-7.49642300973905,-11.1067600250244,0.990351736545563,-7.49648288190232,-11.6083955764771,0.989329040050507
947,-0.53122376881096,-11.0314130783081,0.98936402797699,-7.78414256652155,-11.5695638656616,0.986317098140717
948,-6.50137370421004,-10.9691534042358,0.988231122493744,-9.37308105074329,-11.5270528793335,0.982323884963989
949,-7.71004568571355,-10.9906120300293,0.981851577758789,-12.5036483986857,-11.5153503417969,0.969523012638092
950,-4.48488642428403,-10.9327783584595,0.989237427711487,-2.62034683464253,-11.3953762054443,0.986258625984192
951,-12.705726798175,-10.9074659347534,0.98738431930542,-14.0786475874362,-11.4467754364014,0.982922673225403
952,-19.4109965691107,-10.9243688583374,0.945786416530609,-10.9211544703081,-11.4204950332642,0.875687599182129
953,-16.6283035383683,-10.9272565841675,0.999727308750153,-12.5268405975355,-11.3977994918823,0.999097347259521
954,-13.4596497552042,-10.9486646652222,0.991092264652252,-18.9458474196325,-11.435998916626,0.989938735961914
955,-16.2298053599686,-11.0348482131958,0.999157667160034,-7.60192592769095,-11.4184274673462,0.993433833122253
956,-14.9978004454693,-11.0365085601807,0.988757193088531,-17.9991143889674,-11.442756652832,0.981130421161652
957,-1.80654643456709,-10.989089012146,0.986468553543091,-6.20701524348197,-11.4182291030884,0.945478022098541
958,-8.66115152954108,-10.96755027771,0.988472282886505,-8.1474665312976,-11.4007272720337,0.979682087898254
959,-10.5558720664457,-10.9136428833008,0.997488737106323,-7.61312156862169,-11.3497505187988,0.99147367477417
960,-6.16956509607683,-10.874792098999,0.970613181591034,-0.88108914761583,-11.2456321716309,0.72696840763092
961,-13.7786225642697,-10.8321390151978,0.994327366352081,-6.99719610935812,-11.2163467407227,0.993182003498077
962,-10.4962650992131,-10.8079290390015,0.978579998016357,-8.99664441249721,-11.1580018997192,0.900697946548462
963,-16.4988929862092,-10.872389793396,0.988254904747009,-13.4981797587534,-11.1895084381104,0.977406084537506
964,-10.6205801442673,-10.8825750350952,0.986224293708801,-6.12784925472479,-11.1033477783203,0.973311305046082
965,-14.9984011615116,-10.9425973892212,0.986098051071167,-11.9970872180135,-11.0833377838135,0.976604044437408
966,-8.39314828498647,-10.8880453109741,0.986491322517395,-5.60667048005638,-11.0447883605957,0.972426176071167
967,-11.8051098198086,-10.9312448501587,0.986624598503113,-2.85925758870171,-10.9537715911865,0.966069340705872
968,-11.9960830798432,-10.9012269973755,0.983319699764252,-11.9979583559952,-10.973780632019,0.869743645191193
969,-14.6877859119859,-10.9130353927612,0.328290104866028,-14.2033264837461,-10.967586517334,0.518161654472351
970,-12.5163750177207,-10.9064912796021,0.993560791015625,-6.47094342716385,-10.9207401275635,0.989180088043213
971,-20.2493357917255,-10.9369955062866,0.991315484046936,-6.10458939249114,-10.8798503875732,0.98464822769165
972,-2.0269218185688,-10.8753099441528,0.99716705083847,-5.32875877987196,-10.8103885650635,0.991944193840027
973,-7.84104694955715,-10.8809690475464,0.986964285373688,-17.5479935098463,-10.8259010314941,0.980201542377472
974,-6.80446704896224,-10.8722562789917,0.931333243846893,-10.5422974058122,-10.8039674758911,0.755019783973694
975,-10.8290887890276,-10.8492555618286,0.986375868320465,-15.5556414524669,-10.8818588256836,0.973868846893311
976,1.83201079411826,-10.7670602798462,0.989374101161957,-2.04044344527747,-10.7954769134521,0.978244483470917
977,-11.7476879340558,-10.7946157455444,0.962699472904205,-10.2625109689445,-10.7779083251953,0.716354548931122
978,-11.454922900642,-10.7970199584961,0.989739716053009,-12.4963535017827,-10.7662906646729,0.980704724788666
979,-9.24637399055772,-10.7521886825562,0.999628186225891,-3.46868530518782,-10.7267074584961,0.999283969402313
980,-11.995482363801,-10.8024015426636,0.99067884683609,-10.4955912551456,-10.7949991226196,0.986798107624054
981,-4.78268899231424,-10.7367563247681,0.9913729429245,-11.6017511873248,-10.7783336639404,0.989746928215027
982,-7.4967533038418,-10.6772737503052,0.993090867996216,-10.4916653678079,-10.7868070602417,0.991392016410828
983,-6.44320530136022,-10.6702489852905,0.990378141403198,-7.41590880037174,-10.7462587356567,0.980713129043579
984,-8.99414339525658,-10.6480798721313,0.985677778720856,-8.99670428466047,-10.7009191513062,0.960408568382263
985,-5.26896452980044,-10.578465461731,0.784609138965607,2.79771454718783,-10.5982084274292,0.458516538143158
986,-11.2036705749534,-10.6167011260986,0.990699350833893,-6.3474165898245,-10.5335836410522,0.984742045402527
987,-6.562942037895,-10.5548400878906,0.789336502552032,-11.6034797664917,-10.537428855896,0.830964982509613
988,-8.84711065941148,-10.5571260452271,0.995979905128479,-11.2461789965646,-10.5224599838257,0.99443519115448
989,-5.32838197016767,-10.4821195602417,0.987805247306824,-11.9633971500577,-10.5278072357178,0.993751108646393
990,-8.76047863173017,-10.469669342041,0.994630813598633,-13.1336255543391,-10.5471239089966,0.993461132049561
991,-8.99604369645498,-10.4496631622314,0.993126511573792,-14.9981307395721,-10.5671272277832,0.99484646320343
992,-8.07322319371659,-10.4335069656372,0.987817883491516,-10.38921368464,-10.5664033889771,0.98697566986084
993,-2.35966407706136,-10.3750305175781,0.985083878040314,-1.71757131727646,-10.4554080963135,0.959994316101074
994,-10.4977369532371,-10.3810329437256,0.988949775695801,-7.4941924144379,-10.4462909698486,0.988819658756256
995,-13.0159351604952,-10.4253540039062,0.973464369773865,-8.45461152596337,-10.4189548492432,0.97712117433548
996,-8.6692284967831,-10.423864364624,0.615952134132385,-0.0483224384797505,-10.3251218795776,0.809034943580627
997,-12.2402000857126,-10.484354019165,0.9930779337883,-14.8295196455843,-10.2981758117676,0.988741338253021
998,-6.63590301338229,-10.4290008544922,0.999664545059204,-9.21804946559379,-10.3066530227661,0.992896974086761
999,-12.087856426761,-10.4092502593994,0.992660641670227,-1.16787717604875,-10.2444505691528,0.990706920623779
1000,-7.66720012917771,-10.3661117553711,0.989237904548645,-11.3995262424038,-10.2232093811035,0.986978769302368
1001,-14.4386520223538,-10.3323736190796,0.413850784301758,2.14201875039175,-10.1489534378052,0.598541259765625
1002,-6.3438417802096,-10.3447294235229,0.989843249320984,-6.14081549885238,-10.0999069213867,0.988376557826996
1003,-10.4980073751766,-10.3247289657593,0.989459991455078,-10.4971961093581,-10.069899559021,0.989120841026306
1004,-11.1528125968003,-10.3720006942749,0.989456593990326,-12.0183139869413,-10.0961675643921,0.990520119667053
1005,-11.9907763847545,-10.3809928894043,0.500449776649475,-9.34666460723825,-10.080117225647,0.480772763490677
1006,-11.0782945362646,-10.3421058654785,0.970038056373596,-6.87665568069857,-10.0719680786133,0.975582122802734
1007,-14.0048797035891,-10.3634910583496,0.99447774887085,-9.57446101188562,-10.0712804794312,0.981640756130219
1008,-18.9982432509856,-10.3901586532593,0.986530959606171,-16.8754584749889,-10.0837936401367,0.985932350158691
1009,-10.093965960558,-10.3774747848511,0.988084256649017,-17.7241291381305,-10.1641540527344,0.988227427005768
1010,-16.4887429569269,-10.4034070968628,0.980948984622955,-9.53694931665526,-10.1746101379395,0.986600339412689
1011,-7.1320009503905,-10.4102201461792,0.992611944675446,-18.9988439670279,-10.2168216705322,0.990596950054169
1012,-1.72428668891997,-10.3884506225586,0.987637519836426,-8.16018066872742,-10.1727828979492,0.988192617893219
1013,-10.9696397343385,-10.3729228973389,0.792778849601746,-12.4243270874375,-10.1917943954468,0.647643089294434
1014,-7.23118643058899,-10.3325653076172,0.963518261909485,-8.99768793405576,-10.1784219741821,0.901071131229401
1015,-5.99593118504141,-10.2758235931396,0.990015804767609,-7.49481815552648,-10.1441268920898,0.99131715297699
1016,-11.4494912555822,-10.2537269592285,0.992643654346466,-7.65233309823392,-10.1084308624268,0.990996122360229
1017,-14.8073234991916,-10.2507839202881,0.980699360370636,-4.72612755705857,-10.0667705535889,0.915540218353271
1018,-11.9047218148282,-10.2903089523315,0.978471219539642,-12.1477124690338,-10.1105985641479,0.955529630184174
1019,-14.998671583451,-10.3314332962036,0.989838719367981,-10.4974665312976,-10.1257829666138,0.988039910793304
1020,-9.8456104862392,-10.3154067993164,0.986641764640808,-8.20563179202756,-10.0878820419312,0.986281216144562
1021,-10.2629572977368,-10.3416604995728,0.944855868816376,-9.36413319796426,-10.0984315872192,0.888465166091919
1022,-7.00801650185504,-10.2983255386353,0.989334285259247,-12.0246406638172,-10.0901403427124,0.988659739494324
1023,-15.5543807395721,-10.3657636642456,0.987966239452362,-12.873671583451,-10.1011362075806,0.983567476272583
1024,-13.0916178825562,-10.4069185256958,0.999379515647888,-15.2475300235298,-10.1679573059082,0.994765281677246
1025,-9.38863935957947,-10.3705139160156,0.988836884498596,-6.08218774667624,-10.1346530914307,0.984142005443573
1026,-18.2491143889674,-10.4340934753418,0.98497873544693,-1.99345257887201,-10.0590829849243,0.980851411819458
1027,-11.3787152719677,-10.4828596115112,0.992966175079346,-8.54470264883639,-10.0953702926636,0.981756985187531
1028,-19.4116306852973,-10.5273189544678,0.989822030067444,-14.0434633896001,-10.0978517532349,0.98674076795578
1029,-3.64714625148761,-10.4680862426758,0.989300668239594,-9.8251094506472,-10.1290969848633,0.987523019313812
1030,-15.3280471792107,-10.5102949142456,0.98889434337616,-11.1992367704422,-10.1337842941284,0.988425254821777
1031,-13.0531630662735,-10.465612411499,0.990777969360352,-17.747751426288,-10.1746025085449,0.990327537059784
1032,-13.5095411486684,-10.4870462417603,0.988755762577057,-9.51904775120647,-10.1981916427612,0.988729417324066
1033,-8.6170317486889,-10.5452308654785,0.985603809356689,-17.8362923134647,-10.2469882965088,0.99146968126297
1034,-7.7045175585708,-10.5166130065918,0.983803927898407,-8.08873703429519,-10.2309303283691,0.988758683204651
1035,-8.99664441249721,-10.4948034286499,0.976402282714844,-11.9979583559952,-10.2654495239258,0.982005715370178
1036,-10.4974665312976,-10.4647960662842,0.98507821559906,-8.99697470659996,-10.2454442977905,0.989480495452881
1037,-12.8890581753844,-10.4950885772705,0.993433713912964,-5.01178911289735,-10.2572784423828,0.970842361450195
1038,-11.9976879340558,-10.5210227966309,0.984208166599274,-13.4975790427112,-10.2265329360962,0.989884376525879
1039,-14.8663256898134,-10.499490737915,0.986735701560974,-6.48938349331931,-10.1976804733276,0.990043163299561
1040,-12.8897757541113,-10.5305032730103,0.983638405799866,-5.06633283829435,-10.1822776794434,0.983796536922455
1041,-13.2749383537434,-10.5320911407471,0.979396462440491,-13.4062468791723,-10.1906824111938,0.987250149250031
1042,-9.66115784619135,-10.5475063323975,0.982630908489227,-14.5852651635477,-10.2761259078979,0.988541841506958
1043,-13.9476791680433,-10.6259794235229,0.988864302635193,-14.6355961666892,-10.2891111373901,0.990970969200134
1044,-8.19205419031697,-10.5875339508057,0.992731034755707,-16.1882903338099,-10.3046808242798,0.960923790931702
1045,-5.99305177071903,-10.6012887954712,0.983692288398743,-10.4959946772737,-10.2748308181763,0.990061283111572
1046,-12.5265261615116,-10.5899152755737,0.982351183891296,-12.2390261615116,-10.287389755249,0.987484276294708
1047,-16.4980218482275,-10.6449432373047,0.985713839530945,-16.4988929862092,-10.3079204559326,0.988577246665955
1048,-8.68224113404894,-10.6228885650635,0.388117223978043,-14.4357503336678,-10.2924013137817,0.294192373752594
1049,-8.86669448501308,-10.6244859695435,0.98670095205307,-10.2925417634681,-10.349193572998,0.988618731498718
1050,-13.4975790427112,-10.6949043273926,0.982224762439728,-16.4983521423302,-10.4137296676636,0.980252504348755
1051,-8.99536985238739,-10.6866292953491,0.98649674654007,-10.4974665312976,-10.3844661712646,0.991830885410309
1052,-3.72934528252966,-10.6447916030884,0.986839115619659,-7.98167141321126,-10.3942899703979,0.987038910388947
1053,-6.4094337658313,-10.6427850723267,0.890303909778595,-9.82987410325943,-10.3686447143555,0.926496505737305
1054,-11.06347740774,-10.6282024383545,0.553650081157684,-13.0112886343089,-10.3600950241089,0.707110345363617
1055,-8.32880200285006,-10.5974273681641,0.986676931381226,-15.0851204545651,-10.3775434494019,0.986515283584595
1056,-4.36276619839713,-10.5010900497437,0.861280560493469,-13.7394011585723,-10.3698329925537,0.923752129077911
1057,-10.5753069593525,-10.5192079544067,0.743455946445465,-13.5727431672848,-10.3553285598755,0.629934430122375
1058,3.81214954749118,-10.4057474136353,0.987356781959534,-13.758277929292,-10.3655185699463,0.985961616039276
1059,-10.9439678094445,-10.4794473648071,0.998827755451202,-16.8683354924516,-10.3859796524048,0.996381402015686
1060,-8.4147067726727,-10.4989652633667,0.814530789852142,-0.666145603667457,-10.364200592041,0.720977604389191
1061,-11.7805785827489,-10.509877204895,0.98583984375,-3.67733304936272,-10.3109264373779,0.990674316883087
1062,-5.99593118504141,-10.4705753326416,0.974699258804321,-8.99724512853943,-10.2710313796997,0.9818195104599
1063,-3.13873513298952,-10.4175338745117,0.97126567363739,-12.9913317527712,-10.3074979782104,0.938866198062897
1064,-11.6785813416917,-10.3753976821899,0.98232227563858,-4.54037551404422,-10.2477827072144,0.977702915668488
1065,-7.47210299238317,-10.3552274703979,0.983119547367096,-12.7071291949699,-10.2625198364258,0.982153654098511
1066,-6.38953476918158,-10.2788858413696,0.688392102718353,-7.95992347108953,-10.2403869628906,0.509237110614777
1067,-12.1807975636249,-10.2903232574463,0.971411645412445,-16.3591235337596,-10.2332925796509,0.968798696994781
1068,-21.4995571944837,-10.3908891677856,0.880754590034485,-13.1473331557497,-10.2583923339844,0.776201546192169
1069,-1.39944005804027,-10.332275390625,0.999936461448669,-16.9557353935336,-10.2773857116699,0.999947071075439
1070,-10.7484011615116,-10.3139476776123,0.982096552848816,-3.70501897519441,-10.1820936203003,0.972482204437256
1071,-5.14702652788551,-10.2887048721313,0.984010636806488,-9.3345189120026,-10.1567468643188,0.979169547557831
1072,-8.99604369645498,-10.2692213058472,0.984869241714478,-13.4984501806929,-10.156533241272,0.982433557510376
1073,-17.5561154527425,-10.341570854187,0.898821711540222,-3.59452239476027,-10.0771789550781,0.91730934381485
1074,-8.84768793405576,-10.3091621398926,0.988915920257568,-10.0429583559952,-10.1345729827881,0.993439972400665
1075,-10.495861677085,-10.2987251281738,0.983491003513336,-8.99536985238739,-10.1472682952881,0.972690939903259
1076,-11.997357639953,-10.3020114898682,0.984340965747833,-7.49615258779956,-10.118462562561,0.983003199100494
1077,-9.95486297919802,-10.3014335632324,0.986629962921143,-8.34978524381737,-10.086784362793,0.986264288425446
1078,-8.41331293405575,-10.291974067688,0.984384775161743,-11.1261468482275,-10.0968151092529,0.986235558986664
