EpisodeIndex,DQNEpisodeReward,DQNAverageReward,DQNEpisodeQ0,DDQNEpisodeReward,DDQNAverageReward,DDQNEpisodeQ0
1,-20,-20,0.00693501206114888,-19.04662004662,-19.0466194152832,0.00693501206114888
2,-14,-17,0.453210264444351,-16,-17.5233097076416,0.22154401242733
3,-12,-15.3333330154419,0.980492949485779,-22,-19.0155391693115,0.931700527667999
4,-13.3647058823529,-14.8411769866943,0.400634407997131,-16.7058823529412,-18.4381256103516,0.317631661891937
5,-20.4266666666667,-15.9582748413086,1.48704183101654,-13.5866666666667,-17.4678344726562,0.121166437864304
6,-16,-15.9652290344238,0.985562741756439,-18,-17.5565280914307,0.0177409611642361
7,-17.9087947882736,-16.2428817749023,0.763627886772156,-19.586319218241,-17.8464984893799,0.320981323719025
8,-20.8863636363636,-16.8233165740967,0.709234118461609,-19.0378787878788,-17.9954204559326,1.19546341896057
9,-21.1117318435754,-17.2998065948486,0.438934564590454,-14.9608938547486,-17.6582508087158,-0.136017233133316
10,-17.9017632241814,-17.3600025177002,0.959531784057617,-15.352644836272,-17.4276905059814,0.819208920001984
11,-20,-17.6000022888184,1.30750405788422,-12,-16.9342632293701,0.593688189983368
12,-11,-17.0500011444092,0.535592496395111,-17.6775147928994,-16.9962005615234,0.604754388332367
13,-19.0558659217877,-17.2042999267578,0.28433084487915,-17.804469273743,-17.0583763122559,0.672399938106537
14,-20,-17.4039936065674,0.952275514602661,-22,-17.4113483428955,0.549834907054901
15,-19.6802721088435,-17.5557460784912,0.870767712593079,-16,-17.3172588348389,0.0824188888072968
16,-16.6891191709845,-17.501579284668,0.823370099067688,-18.860103626943,-17.4136867523193,0.551449060440063
17,-8,-16.942663192749,1.13643705844879,-14,-17.2128810882568,0.735721468925476
18,-18,-17.0014038085938,1.03035593032837,-18,-17.2566108703613,1.19810104370117
19,-20.8092485549133,-17.2018184661865,3.63820457458496,-20,-17.4009990692139,1.91351890563965
20,-14.7510373443983,-17.0792789459229,1.13625907897949,-19.4356846473029,-17.5027351379395,0.922270536422729
21,-18.0368271954674,-17.1248760223389,0.549476146697998,-19.1303116147309,-17.5802383422852,0.825900018215179
22,-21.1496259351621,-17.3078193664551,0.1544389128685,-14.8503740648379,-17.4561519622803,0.264027118682861
23,-14.7309417040359,-17.1957817077637,5.20365571975708,-16.4887892376682,-17.4140911102295,4.50557422637939
24,-15.382183908046,-17.1202163696289,0.320118308067322,-20,-17.5218372344971,0.300926059484482
25,-18,-17.1554069519043,0.928813219070435,-18,-17.5409641265869,0.798073470592499
26,-15.1266666666667,-17.0773792266846,1.23403978347778,-12.2666666666667,-17.3381061553955,0.963053166866302
27,-18.6217948717949,-17.134578704834,0.825498342514038,-14.9358974358974,-17.2491359710693,0.699863791465759
28,-20.987987987988,-17.2721996307373,0.868764042854309,-13.1351351351351,-17.1022071838379,0.568593859672546
29,-20,-17.3662605285645,1.06480300426483,-13.9468599033816,-16.9934024810791,0.725258469581604
30,-14.578431372549,-17.2733345031738,2.22232365608215,-15.5588235294118,-16.9455833435059,0.619511544704437
31,-22.5695652173913,-17.4441795349121,0.894647240638733,-20.5173913043478,-17.0608024597168,0.660980045795441
32,-13.0883392226148,-17.3080596923828,0.910165190696716,-20.7703180212014,-17.1767253875732,0.571556687355042
33,-8.8252427184466,-17.05100440979,1.12779223918915,-17.1132686084142,-17.1748027801514,0.496140778064728
34,-19.4347826086957,-17.1211166381836,0.606675565242767,-12.7391304347826,-17.0443420410156,-0.0920358896255493
35,-8.92063492063492,-16.8868160247803,3.51781868934631,-18.218253968254,-17.077880859375,0.214753866195679
36,-17.4985250737463,-16.90380859375,0.675244092941284,-15.1002949852507,-17.02294921875,0.116248682141304
37,-20.1009615384615,-16.9902191162109,0.736737310886383,-14.1923076923077,-16.9464435577393,0.209339484572411
38,-12,-16.8588981628418,1.0020557641983,-16.303738317757,-16.9295310974121,0.332156866788864
39,-14.8779527559055,-16.8081035614014,1.06639266014099,-14.5157480314961,-16.867639541626,0.413012981414795
40,-20,-16.8879013061523,0.892466068267822,-18.8843930635838,-16.9180583953857,0.76867413520813
41,-18.5552050473186,-16.9285659790039,0.109978184103966,-24,-17.0907897949219,0.919942319393158
42,-16.9528795811518,-16.9291458129883,0.231828942894936,-16.9476439790576,-17.087381362915,0.51997435092926
43,-16,-16.9075374603271,0.835271835327148,-16,-17.0620918273926,0.681307673454285
44,-22,-17.0232753753662,0.921673476696014,-20.3012987012987,-17.1357116699219,0.588376224040985
45,-19.1490909090909,-17.0705165863037,1.056272149086,-12,-17.0215854644775,0.424264132976532
46,-14.6376811594203,-17.0176277160645,0.972585380077362,-18.2065217391304,-17.0473442077637,0.499680489301682
47,-18.1548672566372,-17.0418243408203,0.300533890724182,-19.6592920353982,-17.1029186248779,0.372498720884323
48,-14.7117117117117,-16.9932804107666,1.05239462852478,-20.6996996996997,-17.1778507232666,0.200785636901855
49,-16.3519061583578,-16.9801921844482,0.776537954807281,-18.5366568914956,-17.2055816650391,1.29814565181732
50,-14.685534591195,-16.9342975616455,1.08118617534637,-18.685534591195,-17.235179901123,0.0483967363834381
51,-20,-16.9944095611572,0.958658576011658,-14,-17.171745300293,0.173607662320137
52,-8.04280155642023,-16.8222637176514,1.09235608577728,-17.0778210116732,-17.1699390411377,0.358221530914307
53,-19.3282442748092,-16.8695468902588,0.782064855098724,-15.0534351145038,-17.1300048828125,0.578520774841309
54,-22,-16.9645538330078,0.965152084827423,-17.2444987775061,-17.1321258544922,0.328784883022308
55,-18.096,-16.9851264953613,1.0001323223114,-20.6,-17.1951770782471,0.627607345581055
56,-21.2521008403361,-17.0613231658936,0.160584837198257,-20.6344537815126,-17.256591796875,0.481795579195023
57,-22.7157534246575,-17.1605243682861,0.225063607096672,-13.2328767123288,-17.1860008239746,0.346360862255096
58,-15.8490566037736,-17.1379127502441,0.607597053050995,-17.5396226415094,-17.1920986175537,0.0948472321033478
59,-11.027027027027,-17.0343379974365,1.04431653022766,-11.3243243243243,-17.0926456451416,0.00973774120211601
60,-20.0078431372549,-17.0838966369629,1.39611029624939,-11.2078431372549,-16.9945640563965,0.246405929327011
61,-20.7755102040816,-17.1444149017334,0.836935818195343,-17.5714285714286,-17.0040225982666,0.4658342897892
62,-16.6198347107438,-17.1359519958496,0.985878527164459,-13.1446280991736,-16.9417724609375,0.468323200941086
63,-14.6593406593407,-17.0966415405273,1.43167948722839,-15.1181318681319,-16.9128265380859,0.444719880819321
64,-14.3720316622691,-17.054069519043,0.56920850276947,-18.6332453825858,-16.9397087097168,0.469416499137878
65,-11.0510204081633,-16.9617156982422,1.23474550247192,-15.8877551020408,-16.9235229492188,0.427806109189987
66,-18,-16.9774475097656,0.90413498878479,-16,-16.9095306396484,0.344171911478043
67,-18.781954887218,-17.0043792724609,0.655872225761414,-16.3157894736842,-16.900671005249,0.437347680330276
68,-19.0802139037433,-17.0349063873291,0.700640678405762,-13.8609625668449,-16.8559684753418,0.558406829833984
69,-22,-17.1068649291992,0.118775546550751,-20.7368421052632,-16.9122123718262,0.500566005706787
70,-17.0854700854701,-17.1065578460693,0.637488126754761,-17.8076923076923,-16.9250030517578,0.325413525104523
71,-19.7283018867925,-17.1434860229492,0.960065960884094,-18.3358490566038,-16.9448757171631,0.2818503677845
72,-12.8314606741573,-17.0835952758789,1.75210452079773,-20.6938202247191,-16.9969444274902,0.396022170782089
73,-22,-17.1509437561035,1.10328793525696,-20,-17.0380821228027,0.484749794006348
74,-16.3363636363636,-17.1399345397949,1.1166844367981,-9.87272727272727,-16.9412536621094,0.522246778011322
75,-18.8034682080925,-17.1621150970459,1.10416603088379,-22,-17.0087051391602,0.560343563556671
76,-18,-17.1731414794922,1.05555331707001,-16,-16.9954319000244,0.441896468400955
77,-20.98,-17.2225799560547,0.156296923756599,-20.9766666666667,-17.0471343994141,0.395872056484222
78,-12,-17.1556243896484,1.11376738548279,-10,-16.956787109375,0.430323153734207
79,-20.1508196721311,-17.1935386657715,0.91939514875412,-11.2163934426229,-16.8841247558594,0.528823673725128
80,-16.9665071770335,-17.1907005310059,1.25068604946136,-22,-16.9480724334717,0.809830546379089
81,-20,-17.2253837585449,0.882049977779388,-14,-16.9116764068604,0.935787081718445
82,-19.4593175853018,-17.2526264190674,0.864377021789551,-17.4724409448819,-16.918514251709,1.06348514556885
83,-16.4602649006623,-17.2430782318115,0.958766102790833,-17.6721854304636,-16.9275970458984,1.18883967399597
84,-16.2820512820513,-17.2316379547119,1.1386981010437,-16,-16.9165534973145,0.962546169757843
85,-18.9335548172757,-17.2516613006592,0.815858960151672,-20,-16.9528293609619,0.571097254753113
86,-14.9473684210526,-17.2248668670654,0.921837210655212,-20.6234817813765,-16.9955101013184,0.38314887881279
87,-20.9637883008357,-17.26784324646,0.363254427909851,-14.9610027855153,-16.9721240997314,0.270900011062622
88,-16.5808383233533,-17.2600364685059,-0.352759838104248,-15.185628742515,-16.9518241882324,0.261518120765686
89,-12.8601398601399,-17.2105979919434,1.49209117889404,-16,-16.9411296844482,0.197595000267029
90,-20,-17.2415924072266,1.26663041114807,-4,-16.7973384857178,0.371126502752304
91,-18.5054545454545,-17.2554817199707,0.812346816062927,-19.5090909090909,-16.8271389007568,0.680342853069305
92,-9.40650406504065,-17.170166015625,0.561595559120178,-16.3943089430894,-16.8224334716797,0.793018460273743
93,-14,-17.1360778808594,0.183591037988663,-14.8817204301075,-16.8015670776367,0.574398398399353
94,-19.1644736842105,-17.1576557159424,0.711125373840332,-18,-16.8143157958984,0.587570786476135
95,-16.8870056497175,-17.154806137085,1.06730329990387,-12.7853107344633,-16.7719039916992,1.91426968574524
96,-15.448275862069,-17.1370315551758,0.98567259311676,-20,-16.8055305480957,0.811815500259399
97,-17.2921348314607,-17.1386318206787,0.98515772819519,-20.9887640449438,-16.8486576080322,0.969413757324219
98,-17.4285714285714,-17.1415882110596,0.861881256103516,-17.2142857142857,-16.852388381958,0.340448588132858
99,-14.5170068027211,-17.1150798797607,1.00022029876709,-20,-16.8841819763184,0.463562935590744
100,-16.912676056338,-17.1130542755127,0.912360608577728,-18.3267605633803,-16.898609161377,0.209385931491852
101,-20,-17.141637802124,0.963084518909454,-24,-16.9689197540283,0.17255724966526
102,-14.5051546391753,-17.1157894134521,0.841628432273865,-16.298969072165,-16.9623508453369,0.0740673840045929
103,-16.9365671641791,-17.114049911499,1.0276597738266,-18.6268656716418,-16.9785118103027,0.0248774718493223
104,-20,-17.1417980194092,1.09391951560974,-16,-16.9691028594971,0.261899501085281
105,-22,-17.1880664825439,1.05640256404877,-16,-16.9598731994629,0.808224201202393
106,-18.3389830508475,-17.1989269256592,0.821674227714539,-17.3220338983051,-16.9632892608643,1.18464279174805
107,-13.3682926829268,-17.1631240844727,0.523740231990814,-18.9048780487805,-16.9814357757568,0.759931027889252
108,-14,-17.1338367462158,0.804548263549805,-6.76595744680851,-16.886848449707,0.37227189540863
109,-14.5754716981132,-17.1103668212891,1.01669073104858,-17.5283018867925,-16.8927326202393,0.423162251710892
110,-22.3064516129032,-17.1576023101807,0.876253008842468,-15.1075268817204,-16.8765029907227,0.60113525390625
111,-20.0050251256281,-17.1832542419434,0.702873229980469,-21.251256281407,-16.9159164428711,0.64356929063797
112,-16,-17.1726894378662,0.737672090530396,-14,-16.8898811340332,0.646988391876221
113,-19.3115264797508,-17.1916198730469,0.514565289020538,-20.1433021806854,-16.9186725616455,0.67762291431427
114,-17.4542253521127,-17.1939220428467,0.772425293922424,-19.0492957746479,-16.9373607635498,0.587537169456482
115,-12.4355828220859,-17.1525459289551,1.08754551410675,-15.7361963190184,-16.9269161224365,59.0764617919922
116,-18.9052132701422,-17.1676559448242,0.833704054355621,-16.0189573459716,-16.9190883636475,0.81130188703537
117,-18.3474178403756,-17.1777381896973,0.9460209608078,-19.2816901408451,-16.939281463623,0.0563519299030304
118,-16.3496503496504,-17.1707210540771,0.737202644348145,-16,-16.9313220977783,0.472449451684952
119,-14.7032640949555,-17.1499862670898,4.68090534210205,-18,-16.9403018951416,0.450313746929169
120,-14.9659574468085,-17.1317863464355,0.915558874607086,-17.4212765957447,-16.9443111419678,0.592346012592316
121,-18.9825783972125,-17.1470813751221,0.933845221996307,-11.7526132404181,-16.9014053344727,0.579176604747772
122,-21.4833333333333,-17.1826248168945,0.319780230522156,-19.5833333333333,-16.9233875274658,0.543712615966797
123,-16.6938775510204,-17.1786518096924,0.0578794181346893,-16.9795918367347,-16.9238433837891,-0.17130534350872
124,-16,-17.1691455841064,1.40384352207184,-16.9095022624434,-16.9237270355225,-0.0167988538742065
125,-18.4529147982063,-17.1794185638428,2.33367347717285,-14.5515695067265,-16.9047527313232,0.246750026941299
126,-11.7024390243902,-17.1359481811523,1.22027742862701,-13.4292682926829,-16.8771686553955,0.255377411842346
127,-12,-17.0955066680908,1.08205199241638,-20,-16.9017581939697,0.137618452310562
128,-20.6654676258993,-17.1233978271484,1.16150724887848,-19.2446043165468,-16.9200611114502,0.141774654388428
129,-18.687707641196,-17.1355247497559,0.540621936321259,-21.0664451827243,-16.9522037506104,-0.0455351322889328
130,-13.3745928338762,-17.1065940856934,1.37378716468811,-15.1465798045603,-16.9383144378662,-0.124318793416023
131,-18.0628272251309,-17.1138916015625,0.355864822864532,-20.1204188481675,-16.9626064300537,-0.34442275762558
132,-12.699481865285,-17.0804500579834,0.0518536865711212,-18.6787564766839,-16.975606918335,-0.076341837644577
133,-18.9118942731278,-17.0942192077637,0.659959852695465,-16.5903083700441,-16.9727096557617,0.261124938726425
134,-9.9815668202765,-17.0411415100098,1.25069642066956,-16.9032258064516,-16.972188949585,0.528397142887115
135,-16,-17.0334300994873,1.53825986385345,-12.9405405405405,-16.9423274993896,0.1654352247715
136,-17.1301369863014,-17.0341396331787,0.985725045204163,-13.1369863013699,-16.9143466949463,0.225238040089607
137,-20.721568627451,-17.0610542297363,0.52585631608963,-20.5176470588235,-16.9406471252441,0.280749440193176
138,-18.6184538653367,-17.0723400115967,0.80905157327652,-21.1371571072319,-16.9710578918457,-0.452498108148575
139,-20.8703241895262,-17.0996646881104,0.0623799264431,-14.2917705735661,-16.9517822265625,-0.333941340446472
140,-15.5524691358025,-17.0886135101318,0.257149696350098,-22,-16.9878406524658,-0.429217368364334
141,-18,-17.0950756072998,0.45222595334053,-12,-16.952465057373,-0.0436238646507263
142,-16,-17.0873641967773,0.735594809055328,-14,-16.9316730499268,0.500903844833374
143,-19.5586206896552,-17.1046466827393,0.778738021850586,-14.9103448275862,-16.917537689209,0.156531453132629
144,-14,-17.0830860137939,0.564379096031189,-14,-16.8972778320312,0.4560786485672
145,-15.0604026845638,-17.0691375732422,0.557307422161102,-16.5302013422819,-16.8947467803955,0.573702752590179
146,-20.8807947019868,-17.0952453613281,0.767062902450562,-19.0662251655629,-16.9096183776855,-0.698291301727295
147,-19.125,-17.1090526580811,0.797377288341522,-12.1180555555556,-16.8770236968994,0.0421305894851685
148,-18,-17.1150722503662,0.841406166553497,-14,-16.8575839996338,0.455659508705139
149,-16.583606557377,-17.1115055084229,0.964601397514343,-9.32459016393443,-16.8070278167725,1.72821283340454
150,-16.9821428571429,-17.1106433868408,1.02264618873596,-11.3125,-16.7703971862793,0.209276854991913
151,-22.9418604651163,-17.1302547454834,1.36038064956665,-16.6317829457364,-16.7542972564697,0.147804096341133
152,-18.7878151260504,-17.1621723175049,0.837059319019318,-22.6197478991597,-16.7984294891357,2.08427953720093
153,-16,-17.1888389587402,0.726408183574677,-14,-16.745096206665,-0.529046773910522
154,-13.3086419753086,-17.1884670257568,1.56549000740051,-19.1666666666667,-16.7615013122559,0.192536175251007
155,-11.7224489795918,-17.1304397583008,1.12385869026184,-13.6734693877551,-16.7620792388916,1.00397515296936
156,-15.391156462585,-17.1263809204102,0.241939574480057,-15.0102040816327,-16.7421493530273,1.82403445243835
157,-15.8624161073826,-17.1127376556396,1.33823692798615,-14.8389261744966,-16.7104988098145,9.75091934204102
158,-17.2709923664122,-17.0886344909668,0.93381404876709,-20.118320610687,-16.717700958252,10.8903074264526
159,-19.0512820512821,-17.0748996734619,0.663958609104156,-18.3538461538462,-16.7403221130371,-370491.34375
160,-18,-17.075553894043,1.34359395503998,-12.792899408284,-16.7232570648193,-783.821655273438
161,-14,-17.0355529785156,0.410004258155823,-16,-16.7499237060547,1232447.5
162,-18.7462686567164,-17.0871963500977,0.70021790266037,-20.8457711442786,-16.7710456848145,175.230316162109
163,-18.7205882352941,-17.0849590301514,0.787326991558075,-18.8529411764706,-16.7780361175537,2472.18237304688
164,-24,-17.1116256713867,0.705538153648376,-22,-16.7780361175537,708.128723144531
165,-10,-17.0470905303955,1.52512502670288,-12.8444444444444,-16.7569980621338,882.781677246094
166,-15.3233256351039,-17.0379848480225,0.378457635641098,-15.662817551963,-16.7356834411621,1639.65747070312
167,-14,-17.0779857635498,0.998050808906555,-10,-16.7090167999268,957.186828613281
168,-16.7344632768362,-17.0695495605469,0.927977979183197,-18,-16.7090167999268,713.617980957031
169,-13.4691629955947,-17.0206146240234,1.28033745288849,-10.7775330396476,-16.647533416748,1332.66967773438
170,-18,-17.0422744750977,0.225001156330109,-12.9653465346535,-16.604398727417,3642.01342773438
171,-15.3192019950125,-17.0241565704346,0.47776335477829,-20.9800498753117,-16.6167278289795,2677.90478515625
172,-16,-16.9898281097412,1.24723207950592,-20.3165137614679,-16.653169631958,547.031066894531
173,-16.453125,-17.0013084411621,0.750732898712158,-16.6171875,-16.6540260314941,5291.43017578125
174,-18.3248175182482,-17.0209255218506,1.05493080615997,-13.9525547445255,-16.6137084960938,9627.0791015625
175,-12,-16.9809265136719,1.09709620475769,-22,-16.6403751373291,4926.42236328125
176,-14.0441176470588,-16.9737071990967,1.13793885707855,-18.0036764705882,-16.6786231994629,18.0579433441162
177,-18,-16.9695644378662,1.15827441215515,-17.7142857142857,-16.6971454620361,18.1859130859375
178,-14.7741935483871,-16.9281387329102,1.140753865242,-12.7741935483871,-16.6947402954102,878.208068847656
179,-22.375,-16.9439716339111,1.10600399971008,-9.61538461538461,-16.6658630371094,7.10494422912598
180,-12,-16.9267807006836,1.0993869304657,-20,-16.6954708099365,6.0594048500061
181,-11.2182741116751,-16.8511066436768,1.01951146125793,-22,-16.7053546905518,6.29858732223511
182,-10.8653846153846,-16.8362865447998,0.967577338218689,-14.8717948717949,-16.6660327911377,6.53318357467651
183,-12.258064516129,-16.8591728210449,0.929238080978394,-14.9774193548387,-16.6517906188965,6.83400821685791
184,-22,-16.8762722015381,1.01935851573944,-17.0970873786408,-16.6808471679688,7.12801551818848
185,-15.6195286195286,-16.9209327697754,1.0443879365921,-21.0909090909091,-16.6999969482422,7.45384931564331
186,-13.0819672131148,-16.8914890289307,0.941016733646393,-18,-16.7193279266357,7.87120199203491
187,-8.92452830188679,-16.8169803619385,0.851962685585022,-16.7245283018868,-16.7362098693848,8.3035249710083
188,-8,-16.7903118133545,0.957368493080139,-16,-16.7341842651367,8.67709159851074
189,-14.5522388059701,-16.7881412506104,1.59866094589233,-16.7761194029851,-16.7492523193359,8.966064453125
190,-18,-16.774808883667,1.06948864459991,-17.3118279569892,-16.73876953125,9.22527313232422
191,-22,-16.7977733612061,1.00085067749023,-18,-16.6987686157227,9.48215961456299
192,-22,-16.8314208984375,0.471729815006256,-22,-16.7324504852295,26.6864109039307
193,-10.6813880126183,-16.7959632873535,0.973423480987549,-8.06624605678233,-16.6795597076416,13160.7802734375
194,-8,-16.7026309967041,1.12171769142151,-14,-16.6375522613525,13387.3095703125
195,-12,-16.6549701690674,1.22282326221466,-16,-16.6642189025879,22413.341796875
196,-12,-16.6373844146729,1.23386573791504,-14,-16.6361751556396,6381.51318359375
197,-7.5327868852459,-16.5665702819824,1.22023785114288,-14.8893442622951,-16.6043758392334,18289.484375
198,-8,-16.5218257904053,1.20884430408478,-20,-16.5997104644775,13239.521484375
199,-22,-16.5594787597656,1.2000629901886,-15.2964824120603,-16.5781078338623,18841.384765625
200,-17.1245551601424,-16.5757427215576,1.06147611141205,-15.5195729537367,-16.5570011138916,9254.53515625
201,-14,-16.5357418060303,0.795678853988647,-15.512,-16.567081451416,23770.291015625
202,-10,-16.5487899780273,1.07259237766266,-18,-16.5732288360596,16748.216796875
203,-17.0758620689655,-16.5337753295898,1.19624614715576,-10,-16.5395412445068,11.1500425338745
204,-18.6884735202492,-16.511697769165,1.09134781360626,-20.7414330218069,-16.5628547668457,11.332501411438
205,-12.5,-16.4743900299072,0.797473192214966,-12.9291666666667,-16.5117149353027,11.664927482605
206,-10.2834645669291,-16.4012660980225,0.87441211938858,-19.2283464566929,-16.5023403167725,12.0426559448242
207,-14.3159851301115,-16.3452663421631,1.06589257717133,-20.453531598513,-16.5504779815674,12.3839025497437
208,-20,-16.3729400634766,1.13529980182648,-15.4,-16.5362148284912,12.7093029022217
209,-8,-16.3527603149414,1.16378247737885,-18,-16.5807189941406,13.0640125274658
210,-15.734693877551,-16.3242740631104,1.21803271770477,-20,-16.6393337249756,13.3880844116211
211,-14.8707482993197,-16.2849082946777,1.252485871315,-24,-16.6821899414062,13.7442531585693
212,-16.1046511627907,-16.2814712524414,0.679861843585968,-16,-16.7012271881104,14.1324729919434
213,-22.3070866141732,-16.3324584960938,1.23266923427582,-14.7637795275591,-16.6988639831543,14.4472427368164
214,-16.1,-16.3439769744873,1.01356756687164,-22.1125,-16.7220592498779,14.7008895874023
215,-16,-16.3769702911377,0.750372767448425,-13.5384615384615,-16.7063961029053,15.0123205184937
216,-20.4701195219124,-16.3934383392334,0.65863174200058,-17.5776892430279,-16.7169151306152,15.4100532531738
217,-16.848,-16.380542755127,0.796467840671539,-22,-16.754810333252,15.791111946106
218,-10.1309523809524,-16.3208827972412,1.0138133764267,-18.5238095238095,-16.7858943939209,16.0090789794922
219,-13.5329341317365,-16.2644348144531,1.20597016811371,-20.9520958083832,-16.7873306274414,16.1589298248291
220,-20,-16.2838649749756,1.21313285827637,-14.3311688311688,-16.7641544342041,16.3162975311279
221,-14.2683823529412,-16.2474670410156,1.1656219959259,-22.8051470588235,-16.7939491271973,16.4790630340576
222,-15.7752808988764,-16.2670936584473,2.79712176322937,-18.374531835206,-16.7784862518311,16.7928695678711
223,-16.9115044247788,-16.2331695556641,1.18568742275238,-18.9115044247788,-16.7712306976318,86.9609832763672
224,-12.5686274509804,-16.2080516815186,0.949460804462433,-10.8692810457516,-16.7778739929199,1676.85400390625
225,-13.5514403292181,-16.1730365753174,0.773136913776398,-17.4115226337449,-16.7472839355469,607.55078125
226,-12.7396825396825,-16.1379680633545,0.81104439496994,-17.4349206349206,-16.7568492889404,8205.1220703125
227,-17.5947368421053,-16.1154003143311,0.865067183971405,-14.6842105263158,-16.7149028778076,6778.72216796875
228,-16,-16.1420669555664,1.04623365402222,-16.3480176211454,-16.7572193145752,5679.78564453125
229,-21.2234432234432,-16.1492195129395,0.809348225593567,-19.5091575091575,-16.8125057220459,8308.033203125
230,-18,-16.1561088562012,0.865790903568268,-17.2178217821782,-16.7806243896484,3314.5322265625
231,-22,-16.1694412231445,0.890185654163361,-20.1467889908257,-16.8216037750244,2416.45581054688
232,-13.0878186968839,-16.1269645690918,1.09159684181213,-15.985835694051,-16.8116931915283,7054.5947265625
233,-22.25,-16.1655616760254,0.896865844726562,-22.6666666666667,-16.8449897766113,7128.63427734375
234,-12,-16.1370143890381,0.799719393253326,-14,-16.831657409668,4418.08349609375
235,-18.6334841628959,-16.1350154876709,0.812541484832764,-13.1900452488688,-16.7862567901611,2202.87524414062
236,-16.8105726872247,-16.1474342346191,0.804377973079681,-11.1541850220264,-16.7231273651123,5741.49658203125
237,-18,-16.1276760101318,0.765669584274292,-16,-16.730052947998,6010.076171875
238,-16.8923076923077,-16.129753112793,0.911781549453735,-20.3487179487179,-16.7644748687744,3664.76245117188
239,-8,-16.0973510742188,1.06771111488342,-14,-16.7511405944824,12946.046875
240,-14.2971014492754,-16.0593318939209,1.23195385932922,-20.2536231884058,-16.8594989776611,6431.87158203125
241,-14,-16.029296875,1.16604435443878,-22.6623931623932,-16.880521774292,26.6055660247803
242,-8,-16.0199203491211,1.20451533794403,-18,-16.8912239074707,20.1632785797119
243,-18.7281795511222,-16.051441192627,1.13730311393738,-13.4862842892768,-16.8819236755371,19.5885982513428
244,-16.1324503311258,-16.0312271118164,1.18612658977509,-16.8377483443709,-16.874174118042,19.9304351806641
245,-15.6813725490196,-16.0231895446777,1.13718461990356,-15.2892156862745,-16.8908653259277,20.2656288146973
246,-16.3311688311688,-16.0290756225586,0.818728566169739,-17.0551948051948,-16.8712348937988,20.5823249816895
247,-14.6933333333333,-16.0117511749268,0.807737290859222,-11.7244444444444,-16.8094730377197,20.8795509338379
248,-18,-16.0155601501465,0.818532586097717,-19.4844444444444,-16.8246078491211,21.1928043365479
249,-14,-16.012113571167,1.05091500282288,-18,-16.8112735748291,21.486967086792
250,-16,-16.0060291290283,1.1677417755127,-22.427807486631,-16.8386135101318,21.8331317901611
251,-20.1832061068702,-16.007251739502,1.2365847826004,-22,-16.8252792358398,22.1897811889648
252,-15.7515527950311,-16.0155601501465,1.13245320320129,-16.7857142857143,-16.8285255432129,22.4380512237549
253,-18,-16.0226497650146,0.974819958209991,-14.2816901408451,-16.7995567321777,22.6388397216797
254,-10.8918032786885,-15.9619274139404,1.06122982501984,-21.9409836065574,-16.8391628265381,22.8920841217041
255,-24,-15.9752607345581,0.996326744556427,-19.1086956521739,-16.8598899841309,23.0768127441406
256,-18.4909090909091,-15.9762744903564,-0.304917722940445,-20.5963636363636,-16.8817176818848,23.2749767303467
257,-12,-15.9671516418457,0.944656312465668,-10,-16.8223514556885,23.534984588623
258,-12,-15.953818321228,1.21395194530487,-20,-16.9105796813965,23.772762298584
259,-16,-15.9633150100708,1.34744215011597,-14,-16.887056350708,23.9733924865723
260,-17.6130952380952,-15.9320259094238,0.462543308734894,-20,-16.9196739196777,24.2000102996826
261,-13.7553191489362,-15.8903617858887,1.16097843647003,-15.2287234042553,-16.8795223236084,24.4518718719482
262,-10.5164835164835,-15.8538055419922,1.03897035121918,-22,-16.9328556060791,24.760404586792
263,-16,-15.8317289352417,1.2517501115799,-16,-16.9052352905273,25.0601444244385
264,-20,-15.8487014770508,1.18715476989746,-18.4674556213018,-16.9013557434082,25.3015003204346
265,-12,-15.8457975387573,1.2280889749527,-18,-16.9164485931396,25.5340557098389
266,-16.6770186335404,-15.8309421539307,1.28019571304321,-20.5372670807453,-16.946569442749,25.7364158630371
267,-8.77602523659306,-15.7671318054199,1.24140644073486,-12.6845425867508,-16.902587890625,25.9224796295166
268,-22.4982935153584,-15.808123588562,0.833500981330872,-20.160409556314,-16.930326461792,26.1836433410645
269,-16,-15.8167676925659,1.15594363212585,-17.2,-16.9249897003174,26.4855194091797
270,-20.9154228855721,-15.8564319610596,0.174876153469086,-18.9800995024876,-16.9353847503662,26.7911586761475
271,-19.0162162162162,-15.8566570281982,1.04272294044495,-16.7243243243243,-16.9685287475586,27.1204891204834
272,-20,-15.8467674255371,1.13096058368683,-14.8372093023256,-16.9368877410889,27.4514560699463
273,-16.0333333333333,-15.8423633575439,0.677986025810242,-18.3,-16.9456901550293,27.6920795440674
274,-14,-15.8290300369263,1.06016993522644,-16,-16.9396266937256,27.8676929473877
275,-13.1190476190476,-15.7934713363647,0.198645353317261,-16.9940476190476,-16.9559116363525,28.1322937011719
276,-13.7772020725389,-15.8073034286499,1.04445469379425,-18.0259067357513,-16.9865550994873,28.4875106811523
277,-18.2012195121951,-15.8486442565918,1.00893783569336,-24,-17.0132217407227,28.8264350891113
278,-13.9750623441396,-15.8040409088135,0.365152299404144,-16.2992518703242,-16.9935855865479,29.1668434143066
279,-14,-15.7727899551392,1.07631003856659,-18,-16.9731407165527,29.5004425048828
280,-14.6625,-15.7813768386841,1.08600461483002,-16.4125,-16.9815826416016,29.7813148498535
281,-13.2857142857143,-15.7495279312134,0.369151473045349,-15.1503759398496,-16.9484481811523,30.0512771606445
282,-16.6478873239437,-15.7758512496948,1.00610935688019,-14.943661971831,-16.9235458374023,30.2899379730225
283,-8,-15.7031059265137,1.1113692522049,-20,-16.9462776184082,30.4991779327393
284,-12,-15.7165622711182,1.26934003829956,-16,-16.940258026123,30.7218246459961
285,-12,-15.6898956298828,1.31658911705017,-18,-16.9739875793457,30.9621810913086
286,-18.4610778443114,-15.698769569397,1.20621371269226,-17.0718562874252,-17.0002193450928,31.1980285644531
287,-19.627802690583,-15.6914777755737,1.06176054477692,-19.219730941704,-16.9915657043457,31.5210437774658
288,-8,-15.6206865310669,1.05733013153076,-18,-16.9706535339355,31.8971405029297
289,-12,-15.5615530014038,1.26525235176086,-11.6190476190476,-16.9528331756592,32.2248725891113
290,-12.9460784313725,-15.5441761016846,1.33336591720581,-14.7941176470588,-16.9047946929932,32.4958801269531
291,-16.4102564102564,-15.5335779190063,1.2365550994873,-16.2735042735043,-16.9332847595215,32.7649803161621
292,-14,-15.5202445983887,1.09710454940796,-12,-16.9199504852295,32.9905014038086
293,-22,-15.5365200042725,1.12592792510986,-17.1724137931034,-16.9350318908691,33.1460342407227
294,-18.7091836734694,-15.5679130554199,1.1454895734787,-14.9132653061224,-16.9411220550537,33.1996078491211
295,-14.4427244582043,-15.563796043396,1.13934099674225,-17.061919504644,-16.9446659088135,33.1836242675781
296,-18,-15.5445919036865,1.09707379341125,-18.2427536231884,-16.9391765594482,33.1534156799316
297,-24,-15.577091217041,1.82327461242676,-20,-16.9917221069336,33.0184898376465
298,-17.7692307692308,-15.5755529403687,0.670988023281097,-14.6293706293706,-16.9959182739258,32.8363265991211
299,-18,-15.5849952697754,1.15551888942719,-18,-17.0537528991699,32.6524925231934
300,-16.4172661870504,-15.5812292098999,1.03929901123047,-20.273381294964,-17.1134929656982,32.4560737609863
301,-20.5575916230367,-15.565333366394,1.16396236419678,-21.261780104712,-17.144359588623,32.2547454833984
302,-18.7583333333333,-15.5651388168335,1.14130449295044,-15.5458333333333,-17.0972003936768,32.0189666748047
303,-5.42857142857143,-15.4946632385254,1.10877954959869,-14.2857142857143,-17.0991039276123,31.7379703521729
304,-15.0162162162162,-15.506046295166,0.923912465572357,-17.7081081081081,-17.0893821716309,31.584005355835
305,-10,-15.4945640563965,1.08289730548859,-12,-17.0782241821289,31.5393714904785
306,-18.6652360515021,-15.5163898468018,0.786843180656433,-16,-17.0848236083984,31.3756885528564
307,-15.1962025316456,-15.5119495391846,1.35715782642365,-13.493670886076,-17.075855255127,31.1096286773682
308,-24,-15.556809425354,1.09104084968567,-16.8149350649351,-17.0538330078125,30.8113994598389
309,-13.2971887550201,-15.5184469223022,0.923162460327148,-16.7590361445783,-17.0431995391846,30.490852355957
310,-8.72077922077922,-15.4565849304199,0.118523299694061,-18,-17.0779132843018,30.204610824585
311,-10,-15.4299182891846,1.14377808570862,-14,-17.0645809173584,30.0317535400391
312,-18.3617886178862,-15.4273567199707,1.26790535449982,-14.7235772357724,-17.0237655639648,29.8389778137207
313,-19.3821656050955,-15.4317674636841,1.33070623874664,-14.3917197452229,-16.9940242767334,29.540283203125
314,-4,-15.2984342575073,1.22377967834473,-22,-16.9940242767334,29.1747150421143
315,-17.1142857142857,-15.3458623886108,1.23261213302612,-14.4914285714286,-17.0050048828125,28.812292098999
316,-22,-15.3903722763062,1.1820992231369,-16.7892376681614,-17.0125141143799,28.4870777130127
317,-15.7977528089888,-15.4023580551147,1.20168960094452,-21.5243445692884,-17.0893440246582,28.1797485351562
318,-16,-15.3974609375,1.19824981689453,-22,-17.1160106658936,27.8974113464355
319,-20.0512820512821,-15.4413414001465,1.19602882862091,-20.9267399267399,-17.1836719512939,27.574254989624
320,-17.3656957928803,-15.4371128082275,1.10911250114441,-22,-17.2439022064209,27.2304534912109
321,-18.283185840708,-15.4568729400635,0.909594595432281,-16.6991150442478,-17.2153606414795,26.9114685058594
322,-12.6940789473684,-15.4348335266113,0.845450818538666,-17.7598684210526,-17.1983165740967,26.6018562316895
323,-14,-15.4184799194336,0.810297608375549,-16.7680608365019,-17.1993236541748,26.3413467407227
324,-16,-15.4029817581177,0.869247496128082,-18.82,-17.2317733764648,26.1155014038086
325,-18.4444444444444,-15.4459438323975,1.03168535232544,-19.4563492063492,-17.2148151397705,25.9038639068604
326,-14.3333333333333,-15.4478731155396,1.16492331027985,-16,-17.2014579772949,25.6497364044189
327,-17.1052631578947,-15.4419078826904,1.26682198047638,-16.5526315789474,-17.1937141418457,25.3460311889648
328,-9.078125,-15.4039335250854,1.3274838924408,-19.296875,-17.2371978759766,25.0626983642578
329,-18.2476190476191,-15.3764181137085,1.33265399932861,-17.2888888888889,-17.2883567810059,24.8566589355469
330,-21.3491271820449,-15.4387454986572,1.30550730228424,-17.6932668329177,-17.2729778289795,24.6549739837646
331,-14.9333333333333,-15.4635124206543,1.17220330238342,-24,-17.2863101959229,24.4296054840088
332,-18.9824561403509,-15.5176248550415,0.253878057003021,-15.4736842105263,-17.2903213500977,24.1811084747314
333,-20.7044673539519,-15.573935508728,0.910963177680969,-24,-17.3504734039307,23.9385204315186
334,-15.3030303030303,-15.5292882919312,0.857939541339874,-20,-17.3698253631592,23.6845855712891
335,-16.8148148148148,-15.537257194519,0.798395156860352,-16.5432098765432,-17.3395080566406,23.4176006317139
336,-16,-15.5567121505737,0.872645854949951,-21.1058201058201,-17.3602123260498,23.1548976898193
337,-18.9269662921348,-15.6233949661255,0.616592288017273,-22.252808988764,-17.3970680236816,22.8686943054199
338,-24,-15.7300615310669,0.821769177913666,-21.24,-17.4320011138916,22.5524826049805
339,-14.9862385321101,-15.7329559326172,0.458103597164154,-18,-17.4401607513428,22.2409381866455
340,-15.7739463601533,-15.7181148529053,0.451019078493118,-20.4214559386973,-17.4608917236328,21.9339447021484
341,-18.448275862069,-15.6944370269775,0.295069694519043,-16.8850574712644,-17.4534587860107,21.9244537353516
342,-13.1058823529412,-15.6351404190063,0.98590213060379,-19.1529411764706,-17.4344787597656,22.0013275146484
343,-20.7546666666667,-15.702296257019,0.999863266944885,-22,-17.5273723602295,22.2683200836182
344,-18.1792929292929,-15.7701578140259,0.774243175983429,-13.7979797979798,-17.5260238647461,22.6374740600586
345,-15.1552346570397,-15.7911930084229,0.64415830373764,-14,-17.5126895904541,23.0454654693604
346,-7.22727272727273,-15.7593746185303,0.727815449237823,-18.2062937062937,-17.5407333374023,23.3766975402832
347,-8.88741721854305,-15.7684049606323,0.66282320022583,-16.841059602649,-17.5537433624268,23.6418704986572
348,-22,-15.8617382049561,1.00821280479431,-11.7340425531915,-17.4986381530762,23.9631595611572
349,-13.8823529411765,-15.8076200485229,0.790574431419373,-16.3705882352941,-17.5057983398438,24.2571487426758
350,-14.975,-15.7932910919189,0.745858728885651,-12.9,-17.4883346557617,24.4728717803955
351,-12,-15.7799577713013,0.603089332580566,-14,-17.4782543182373,24.6552867889404
352,-16.1129943502825,-15.8207111358643,0.28020852804184,-8,-17.4115886688232,24.8973903656006
353,-15.0518518518519,-15.8072166442871,1.03334724903107,-14.9185185185185,-17.4443778991699,25.2129459381104
354,-18.9391891891892,-15.8088903427124,0.977178156375885,-13.1959459459459,-17.3940734863281,25.5857563018799
355,-18.9249011857708,-15.8517217636108,1.21138191223145,-20.5375494071146,-17.4447956085205,25.8903484344482
356,-14,-15.8764991760254,1.29700493812561,-14,-17.4099407196045,26.108528137207
357,-20.6799065420561,-15.9189262390137,1.1263884305954,-15.946261682243,-17.3798942565918,26.3581809997559
358,-14,-15.8789253234863,0.967300534248352,-6,-17.3172264099121,26.6942901611328
359,-14.871875,-15.9247360229492,0.997718453407288,-14,-17.2905597686768,27.0712127685547
360,-15.4,-15.9225063323975,1.15759932994843,-14.3904761904762,-17.2531623840332,27.4231414794922
361,-20,-15.9567022323608,1.17505967617035,-18,-17.2131633758545,27.7295017242432
362,-8,-15.9026708602905,1.24066197872162,-12,-17.1864948272705,28.0384349822998
363,-10.6230031948882,-15.8247766494751,1.41366922855377,-20.1980830670927,-17.2227249145508,28.3390598297119
364,-10.9305555555556,-15.7903127670288,1.39300239086151,-15.1041666666667,-17.1760025024414,28.6217823028564
365,-12.7577092511013,-15.7686977386475,1.36963796615601,-17.4669603524229,-17.2021923065186,28.8713970184326
366,-15.7281553398058,-15.7370862960815,1.16238498687744,-20.2912621359223,-17.2202816009521,29.0401821136475
367,-14.8837209302326,-15.7239904403687,0.892606973648071,-14.4186046511628,-17.1697387695312,29.2382164001465
368,-20,-15.7897853851318,0.82884156703949,-16.9214285714286,-17.1590557098389,29.4336910247803
369,-18,-15.8195657730103,0.792675495147705,-18.9248554913295,-17.1455421447754,29.65114402771
370,-13.9891696750903,-15.7794923782349,-0.154947519302368,-17.7003610108303,-17.1680030822754,29.8822078704834
371,-14.6989247311828,-15.7823619842529,0.680350244045258,-22,-17.1626358032227,30.0608577728271
372,-16.5555555555556,-15.7875633239746,0.820161104202271,-20.9320987654321,-17.1796855926514,30.2214851379395
373,-19.0952380952381,-15.8021221160889,0.224093616008759,-14.6428571428571,-17.1512279510498,30.4820365905762
374,-12.255,-15.8000326156616,0.867467880249023,-16,-17.185432434082,30.8368091583252
375,-16,-15.8163557052612,0.988246917724609,-12,-17.149356842041,31.155891418457
376,-14,-15.8247575759888,0.982072710990906,-18,-17.1531257629395,31.4052104949951
377,-17.104,-15.8214864730835,-0.368218779563904,-9.04,-17.1154956817627,31.6277656555176
378,-14.0458015267176,-15.8084573745728,1.16854703426361,-18.5725190839695,-17.1303272247314,31.8467845916748
379,-8.61538461538461,-15.724404335022,0.93538236618042,-14.7115384615385,-17.0983428955078,32.0605239868164
380,-19.1986754966887,-15.7323961257935,0.850741565227509,-18.8907284768212,-17.1094951629639,32.2533302307129
381,-20,-15.7190628051758,0.89463222026825,-15.4488778054863,-17.0781745910645,32.4200325012207
382,-18.9423076923077,-15.758092880249,0.631531774997711,-17.6346153846154,-17.089168548584,32.5933647155762
383,-14.0915750915751,-15.7037029266357,-0.505285918712616,-19.1758241758242,-17.0658950805664,32.7767601013184
384,-12.7894736842105,-15.708966255188,0.608422756195068,-15.2561403508772,-17.0742683410645,32.8986778259277
385,-22,-15.731409072876,0.793037712574005,-16,-17.0930004119873,33.1317977905273
386,-12.7848605577689,-15.704571723938,1.00739073753357,-12.2948207171315,-17.100606918335,33.4016456604004
387,-14,-15.6779050827026,0.891679465770721,-16.6583850931677,-17.1049976348877,33.6764335632324
388,-13.0459016393443,-15.6522626876831,1.69033789634705,-18.9344262295082,-17.0955657958984,33.8459777832031
389,-16.3085501858736,-15.7076511383057,0.715242505073547,-18.9033457249071,-17.1282558441162,33.9414138793945
390,-18,-15.7323369979858,0.855721712112427,-15.1273885350318,-17.0940799713135,34.1302871704102
391,-20.1103678929766,-15.7730731964111,0.85422694683075,-16.2240802675585,-17.0511589050293,34.4010963439941
392,-9.39716312056738,-15.7823877334595,0.787890434265137,-6,-16.9711589813232,34.6841926574707
393,-17.0184501845018,-15.7709894180298,0.789010465145111,-9.8450184501845,-16.9468841552734,34.9945831298828
394,-16.8755980861244,-15.7759437561035,0.896821081638336,-10.0287081339713,-16.9014911651611,35.2870330810547
395,-16,-15.7780675888062,0.744009733200073,-22.1387283236994,-16.9471549987793,35.4790382385254
396,-22.7338709677419,-15.8207521438599,0.885847151279449,-20.5725806451613,-16.9706020355225,35.5909767150879
397,-10.1646090534979,-15.7905616760254,0.766051173210144,-17.3827160493827,-17.0083236694336,35.7779846191406
398,-22.8639455782313,-15.8229885101318,0.495144635438919,-18.2290249433107,-16.9999542236328,35.9974174499512
399,-20.84,-15.8685874938965,0.693788886070251,-15.44,-16.982889175415,36.2008972167969
400,-17.4154302670623,-15.8780241012573,0.718794047832489,-16.4658753709199,-16.9431438446045,36.3914260864258
401,-12.4984423676012,-15.8267917633057,0.732110142707825,-18.6915887850467,-16.9210872650146,36.5095252990723
402,-16,-15.8284492492676,1.02261161804199,-15.7323943661972,-16.9140644073486,36.5397109985352
403,-12.3920265780731,-15.7910623550415,0.603889882564545,-22,-16.9655208587646,36.5427169799805
404,-14.8530612244898,-15.8174705505371,0.647946834564209,-16.5918367346939,-16.929859161377,36.6913795471191
405,-14.0646766169154,-15.7512350082397,0.789672791957855,-16.2885572139303,-16.9110584259033,36.9692764282227
406,-16,-15.7346286773682,0.719203174114227,-14,-16.8670825958252,37.3038139343262
407,-14.9162790697674,-15.7540702819824,0.719163417816162,-20.1720930232558,-16.9348964691162,37.5679321289062
408,-10,-15.7407369613647,0.0427090525627136,-14.2824427480916,-16.8967781066895,37.7809181213379
409,-13.1232876712329,-15.7215595245361,0.919967293739319,-11.3972602739726,-16.8794288635254,38.0145492553711
410,-10.2242990654206,-15.6723012924194,0.751789510250092,-12.8598130841122,-16.8318252563477,38.2766036987305
411,-11.858064516129,-15.6596536636353,0.558155298233032,-14.9870967741935,-16.8302154541016,38.5079078674316
412,-6.60162601626016,-15.6335544586182,0.57193911075592,-15.0325203252033,-16.7837657928467,38.7565383911133
413,-20.1808219178082,-15.6614255905151,0.565485119819641,-12.0383561643836,-16.7573547363281,39.0531234741211
414,-12.8921568627451,-15.6140394210815,0.369409382343292,-13.3921568627451,-16.723518371582,39.3976936340332
415,-6.85507246376812,-15.5797414779663,0.338298857212067,-22,-16.7501850128174,39.667781829834
416,-16.3023255813954,-15.5772428512573,-0.0278756618499756,-16.922480620155,-16.7260875701904,39.8443794250488
417,-12,-15.5987358093262,0.735839664936066,-16,-16.7481899261475,39.916820526123
418,-22,-15.5954132080078,0.574488282203674,-7.65656565656566,-16.664831161499,39.9932441711426
419,-16.1582491582492,-15.5964679718018,0.0944398045539856,-11.7643097643098,-16.6285934448242,40.219051361084
420,-11.4179104477612,-15.5331506729126,0.751540124416351,-18.9014925373134,-16.6280689239502,40.5625152587891
421,-15.2334630350195,-15.5079326629639,-0.283740341663361,-12.4552529182879,-16.599609375,40.6523475646973
422,-18,-15.4945993423462,0.688586831092834,-15.4666666666667,-16.6038055419922,40.4326934814453
423,-15.5350140056022,-15.4912796020508,-0.121746242046356,-17.4089635854342,-16.597864151001,40.2913360595703
424,-20,-15.5312795639038,0.744063436985016,-17.4156626506024,-16.6073036193848,40.4695014953613
425,-16,-15.5504846572876,0.776862025260925,-14,-16.5873413085938,40.6879386901855
426,-18.9411764705882,-15.5849123001099,0.763862907886505,-9.1,-16.5278377532959,40.91015625
427,-20.3254716981132,-15.5990724563599,0.661417007446289,-10.7169811320755,-16.4392833709717,41.1723289489746
428,-12,-15.5859050750732,0.679297745227814,-16,-16.4372882843018,41.441650390625
429,-12.809756097561,-15.5779705047607,0.789484441280365,-14.5121951219512,-16.4140357971191,41.6884918212891
430,-16.1261261261261,-15.5877275466919,-0.233579277992249,-22,-16.451286315918,50.780387878418
431,-14,-15.592490196228,0.558066546916962,-14.7718631178707,-16.4487628936768,34.4042472839355
432,-17.1935483870968,-15.5961275100708,-0.173841297626495,-14,-16.4424705505371,39.0803031921387
433,-18,-15.6627950668335,0.594410002231598,-20,-16.4424705505371,42.3369255065918
434,-18.6744574290484,-15.7072916030884,0.585047841072083,-19.1669449081803,-16.4635848999023,42.2110404968262
435,-14,-15.7206249237061,0.520663976669312,-14,-16.436918258667,42.236743927002
436,-22,-15.7442169189453,0.625247180461884,-14.3085714285714,-16.4184951782227,42.2298049926758
437,-20.0732984293194,-15.7471876144409,0.687003374099731,-22,-16.4370307922363,42.290584564209
438,-14.5480225988701,-15.7908411026001,0.682344615459442,-18.5480225988701,-16.4406833648682,42.2746963500977
439,-16,-15.8175077438354,-0.189604461193085,-13.1379310344828,-16.4508113861084,42.3336639404297
440,-14,-15.8245344161987,0.849606513977051,-12,-16.4321842193604,42.3384628295898
441,-16.8451327433628,-15.8274335861206,0.660195112228394,-16.0929203539823,-16.430980682373,42.4992370605469
442,-16,-15.8407669067383,0.351249098777771,-14,-16.4443130493164,42.7895622253418
443,-21,-15.8340997695923,0.442325681447983,-15.1686746987952,-16.4309539794922,43.0216064453125
444,-15.0361990950226,-15.8096122741699,0.478376686573029,-16,-16.4381980895996,43.0054359436035
445,-14.5336134453782,-15.8102178573608,0.455761820077896,-14,-16.4177856445312,42.7071342468262
446,-12.6255707762557,-15.7743892669678,0.535539746284485,-14.2739726027397,-16.3913288116455,42.5163307189941
447,-20,-15.7477226257324,0.323855102062225,-18,-16.3779945373535,42.4135398864746
448,-20.9716599190283,-15.7690725326538,0.488675147294998,-17.4574898785425,-16.3968486785889,42.3281059265137
449,-14,-15.7424058914185,0.486163377761841,-10,-16.3435153961182,44.8482894897461
450,-14.167701863354,-15.7274084091187,0.304925322532654,-14.416149068323,-16.3044662475586,35.3095016479492
451,-14.7179487179487,-15.6884784698486,0.828536868095398,-14.4358974358974,-16.258960723877,27.9302196502686
452,-8,-15.6167545318604,0.805880546569824,-20,-16.2886562347412,20.2561073303223
453,-10,-15.6472311019897,0.855786979198456,-16,-16.300085067749,39.7699279785156
454,-14,-15.640456199646,0.86104816198349,-10,-16.2486972808838,42.0345077514648
455,-15.3341645885287,-15.6760168075562,-0.342555284500122,-13.5635910224439,-16.2591209411621,42.287899017334
456,-16.2762237762238,-15.6600914001465,0.58232444524765,-17.3461538461538,-16.2680950164795,42.1878852844238
457,-12,-15.6387825012207,0.72709321975708,-10,-16.2448043823242,42.1078987121582
458,-17.724,-15.596941947937,-0.520819783210754,-18.276,-16.254545211792,42.5195960998535
459,-16,-15.6149606704712,0.247197031974792,-22,-16.2894840240479,34.3904266357422
460,-18.515625,-15.6802606582642,-0.952512919902802,-20.515625,-16.3062553405762,35.8421249389648
461,-15.4238683127572,-15.7164211273193,0.0323886275291443,-20.7942386831276,-16.3515491485596,32.2179183959961
462,-17.7587939698492,-15.7124004364014,0.56582909822464,-18.3015075376884,-16.3754024505615,5468.79345703125
463,-20.1005291005291,-15.717188835144,0.674585998058319,-16.1058201058201,-16.3868293762207,982.546997070312
464,-13.7686375321337,-15.7823123931885,-0.0849834084510803,-18.2827763496144,-16.3620491027832,1245.58374023438
465,-17.1511627906977,-15.7825584411621,0.252847045660019,-18.6511627906977,-16.3897800445557,1235.64807128906
466,-10.9650872817955,-15.7089929580688,0.675761461257935,-18.5386533665835,-16.4014415740967,2086.724609375
467,-14,-15.6970071792603,0.832850754261017,-18,-16.3779468536377,1977.63940429688
468,-14.8429319371728,-15.6892938613892,0.448769778013229,-18.2408376963351,-16.3528881072998,1458.93823242188
469,-19.5561097256858,-15.6859931945801,0.267043352127075,-17.9201995012469,-16.3328418731689,1121.81640625
470,-17.1081081081081,-15.6842756271362,0.337901085615158,-14.7891891891892,-16.2847728729248,1058.48852539062
471,-16.9480519480519,-15.6753740310669,0.627171397209167,-20.2701298701299,-16.3085765838623,1245.55676269531
472,-15.1484593837535,-15.6917362213135,-0.62528657913208,-17.327731092437,-16.3056964874268,2004.0419921875
473,-18.6996197718631,-15.7230663299561,0.566239893436432,-12.5475285171103,-16.2775592803955,1710.13537597656
474,-8.97785977859779,-15.6762533187866,0.680726766586304,-20.3468634686347,-16.2877388000488,1181.32678222656
475,-22,-15.6999578475952,0.741152048110962,-13.1963190184049,-16.2460060119629,1188.99487304688
476,-20,-15.737735748291,0.323313176631927,-16.6774193548387,-16.2505207061768,1497.912109375
477,-18.5742092457421,-15.7475290298462,0.723868429660797,-19.4379562043796,-16.2697563171387,661.798400878906
478,-10,-15.7536754608154,0.679660260677338,-12,-16.2211093902588,1282.00939941406
479,-18.0689655172414,-15.7524833679199,0.768430709838867,-20.5287356321839,-16.2427082061768,965.02001953125
480,-19.2666666666667,-15.738600730896,0.866706728935242,-17.2666666666667,-16.2398662567139,1501.16467285156
481,-18.1283018867925,-15.7598991394043,0.241677224636078,-18.0415094339623,-16.2001438140869,1081.84057617188
482,-14,-15.7266826629639,-0.134401440620422,-14.1506849315068,-16.1913223266602,942.554931640625
483,-14.5686274509804,-15.6857776641846,0.736787676811218,-15.2592592592593,-16.1330509185791,1630.13330078125
484,-13.9756097560976,-15.6769285202026,0.489454984664917,-19.1045296167247,-16.1270809173584,1250.83325195312
485,-16,-15.6714973449707,0.718035638332367,-12,-16.096794128418,1068.32055664062
486,-15.7980049875312,-15.6701498031616,0.749071359634399,-22.3665835411471,-16.1051979064941,912.495910644531
487,-16.1866666666667,-15.6518812179565,0.576751053333282,-24,-16.1168479919434,1446.89147949219
488,-20.3103448275862,-15.6272830963135,-0.324955821037292,-24,-16.1352481842041,1734.06298828125
489,-16.0277777777778,-15.6342267990112,0.0413712449371815,-20,-16.1485805511475,1699.45654296875
490,-17.6060606060606,-15.6464405059814,0.0742970779538155,-16.7929292929293,-16.1243896484375,1705.98461914062
491,2,-15.5101184844971,-0.0466783940792084,-20,-16.1451568603516,1961.216796875
492,-14.9692832764505,-15.5225410461426,0.235290870070457,-16.778156996587,-16.129322052002,1093.42053222656
493,-16.6129943502825,-15.494930267334,0.603927373886108,-21.0564971751412,-16.1230335235596,863.552551269531
494,-20.7375328083989,-15.5119857788086,-0.464386940002441,-17.6377952755906,-16.1486320495605,1884.10131835938
495,-22,-15.5576171875,0.245697855949402,-22.7294520547945,-16.2068290710449,2229.30712890625
496,-14.02734375,-15.6029510498047,0.475925654172897,-18.96484375,-16.2118854522705,2417.82958984375
497,-10,-15.6103677749634,0.406236410140991,-20,-16.232946395874,2509.25390625
498,-9.44758064516129,-15.5266847610474,0.738049030303955,-18,-16.2747192382812,2684.08447265625
499,-14,-15.5274686813354,0.814939022064209,-12,-16.2455806732178,2816.1357421875
500,-14,-15.5209684371948,0.916427433490753,-20.4773869346734,-16.2960968017578,3110.57690429688
501,-20,-15.5743017196655,-0.641081809997559,-16,-16.3094310760498,3014.31787109375
502,-18,-15.5868835449219,0.869956135749817,-14,-16.3494300842285,2120.9345703125
503,-18,-15.6065378189087,0.659135818481445,-20,-16.3833065032959,3541.31567382812
504,-13.6678966789668,-15.5713968276978,0.945548236370087,-16.6457564575646,-16.4063053131104,3251.0166015625
505,-17.4408817635271,-15.561502456665,0.574126422405243,-20.2104208416834,-16.404125213623,2733.25415039062
506,-20.7083333333333,-15.6062240600586,-0.372144103050232,-12.3030303030303,-16.3928127288818,3223.58666992188
507,-12.8561151079137,-15.5540657043457,0.601962685585022,-20,-16.4198379516602,4201.8642578125
508,-16,-15.5673990249634,-0.583818912506104,-15.021164021164,-16.4799766540527,2746.0654296875
509,-15.4230769230769,-15.5710744857788,0.872418105602264,-20.2932692307692,-16.5219345092773,4062.341796875
510,-16.9155555555556,-15.5811786651611,0.270851254463196,-16.5288888888889,-16.5361881256104,3486.31494140625
511,-14.4764397905759,-15.5443534851074,0.881805717945099,-14.8952879581152,-16.5154895782471,4847.404296875
512,-12,-15.5710201263428,-0.687932848930359,-16.3563829787234,-16.5445327758789,4288.27978515625
513,-16.7769516728625,-15.6120462417603,0.912998139858246,-22,-16.556547164917,5075.0537109375
514,-16.0811455847255,-15.6463832855225,0.852614939212799,-22.4606205250597,-16.6055889129639,5265.9033203125
515,-12,-15.6413316726685,0.843106150627136,-18,-16.6091442108154,3515.93994140625
516,-14.6534653465347,-15.6341667175293,0.988332808017731,-14.9504950495049,-16.5735378265381,5349.595703125
517,-19.18125,-15.6628170013428,0.168898046016693,-17.653125,-16.595100402832,4832.75244140625
518,-15.4146341463415,-15.632248878479,1.11923933029175,-18.5040650406504,-16.6056518554688,3979.46069335938
519,0.704035874439461,-15.5075550079346,0.490068793296814,-22,-16.6261520385742,5880.26171875
520,-15.0341614906832,-15.5145215988159,1.12327790260315,-18.3447204968944,-16.6304492950439,5606.92529296875
521,-4,-15.4431953430176,0.965578734874725,-20,-16.617115020752,6077.36865234375
522,-14.5,-15.4294919967651,1.01988732814789,-18.8571428571429,-16.6032829284668,4164.287109375
523,-14,-15.3955240249634,1.12858211994171,-6,-16.5456619262695,6253.65771484375
524,-14.5,-15.4104900360107,1.06673419475555,-20,-16.5723285675049,5113.06396484375
525,-16.2705479452055,-15.4122934341431,0.951637506484985,-17.4794520547945,-16.6088581085205,6110.21044921875
526,-9.66506024096386,-15.3833932876587,0.0136948227882385,-15.9156626506024,-16.5949649810791,5778.64453125
527,-14.6498422712934,-15.3670330047607,0.614603400230408,-18.0883280757098,-16.6552867889404,5770.8828125
528,-10.4982332155477,-15.3433818817139,0.641889810562134,-18.2650176678445,-16.6532363891602,7086.92138671875
529,-11.16,-15.3603448867798,0.801137030124664,-16.38,-16.6643581390381,6855.04638671875
530,-18,-15.3523550033569,0.156646490097046,-12.3965087281796,-16.6210651397705,6726.85107421875
531,-12.390092879257,-15.3016223907471,-0.715440154075623,-17.0804953560372,-16.6319408416748,6558.79248046875
532,-17.0995024875622,-15.2893371582031,0.186554551124573,-18.3233830845771,-16.6365337371826,6305.54833984375
533,-10.8272251308901,-15.2675752639771,0.485330522060394,-20,-16.6420288085938,5453.8037109375
534,-16.7686832740214,-15.2941036224365,1.22118818759918,-14.153024911032,-16.6346740722656,8604.5146484375
535,-18.8939393939394,-15.2733964920044,1.24320244789124,-16.6477272727273,-16.6389904022217,7484.34375
536,-19.8333333333333,-15.3203859329224,-0.104477405548096,-18.1515151515152,-16.6780376434326,7143.76611328125
537,-10,-15.293719291687,1.18546330928802,-16,-16.6736450195312,8208.9130859375
538,-14,-15.3000793457031,1.1128089427948,-20,-16.6807518005371,5874.84423828125
539,-17.7365079365079,-15.3095998764038,1.10669052600861,-14.2825396825397,-16.6499443054199,9231.3154296875
540,-16.8639053254438,-15.3020267486572,1.1224969625473,-16.1952662721894,-16.6570644378662,8379.578125
541,-16,-15.2746238708496,1.14812469482422,-17.672514619883,-16.6667213439941,7591.43994140625
542,-18,-15.3319759368896,0.494403839111328,-19.2237762237762,-16.7548789978027,7325.61572265625
543,-19.4115226337449,-15.3479299545288,1.2655782699585,-19.082304526749,-16.8164615631104,9454.26953125
544,-13.4029126213592,-15.3247785568237,0.70121031999588,-25,-16.9162712097168,9425.1787109375
545,-16.504347826087,-15.3281412124634,0.244369745254517,-20,-16.9020137786865,8151.74658203125
546,-18,-15.2965822219849,1.27579998970032,-20,-16.8981971740723,9219.888671875
547,-19,-15.3554830551147,0.977213442325592,-15.8083067092652,-16.8876991271973,9432.6279296875
548,-14.1525423728814,-15.2974090576172,1.21313440799713,-14.045197740113,-16.8598079681396,8479.0048828125
549,-13.6111111111111,-15.2492151260376,0.620564997196198,-15.0617283950617,-16.8572845458984,8967.697265625
550,-18,-15.2531118392944,1.07164442539215,-16.9638554216867,-16.8606052398682,8659.8876953125
551,-14.4597701149425,-15.266188621521,1.12862050533295,-18.2298850574713,-16.8575267791748,9751.7294921875
552,-18.5294117647059,-15.2830505371094,1.09640526771545,-18.8388746803069,-16.8782367706299,10479.9853515625
553,-18.875,-15.3262691497803,0.742487072944641,-17.90625,-16.8509464263916,9170.607421875
554,-20.783185840708,-15.3658037185669,-0.549346923828125,-13.1327433628319,-16.8278846740723,11456.849609375
555,-12.8920863309353,-15.3579883575439,0.144432306289673,-12.5395683453237,-16.8028907775879,10007.322265625
556,-20.9307958477509,-15.3908596038818,0.630352020263672,-16.6124567474048,-16.8203086853027,9751.8818359375
557,-15.1167512690355,-15.3921957015991,0.449674844741821,-11.1522842639594,-16.7601757049561,9345.15234375
558,-14.1967213114754,-15.4201745986938,0.297937422990799,-14.3934426229508,-16.7609157562256,11537.5947265625
559,-20,-15.4660186767578,0.639186084270477,-18.108843537415,-16.8056602478027,12150.6845703125
560,-10,-15.4645233154297,0.849732041358948,-18,-16.8399276733398,10375.87109375
561,-16.1302325581395,-15.4930047988892,1.20980393886566,-12.1302325581395,-16.8208827972412,11068.84765625
562,-12,-15.5289945602417,1.17988610267639,-16.5308641975309,-16.8308715820312,11315.962890625
563,-18.9183673469388,-15.5205764770508,1.14624297618866,-16.9795918367347,-16.8638134002686,12171.4541015625
564,-14.8785714285714,-15.5338220596313,-0.298604667186737,-11.9785714285714,-16.8543891906738,11809.8349609375
565,-12.4233576642336,-15.5709419250488,0.753820359706879,-13.9489051094891,-16.8007164001465,12973.568359375
566,-16.2114695340502,-15.5703372955322,-0.11309626698494,-18,-16.8078994750977,11945.841796875
567,-15.452736318408,-15.5933542251587,1.07829618453979,-21.6467661691542,-16.8455429077148,10042.3759765625
568,-22.5909090909091,-15.5972929000854,0.0513034462928772,-13.3030303030303,-16.883186340332,12237.81640625
569,-6,-15.5295715332031,0.948495030403137,-16,-16.9114265441895,12952.994140625
570,-14.3171806167401,-15.5489015579224,0.945921540260315,-17.5066079295154,-16.9021263122559,14462.06640625
571,-16.4047619047619,-15.5567092895508,1.50435364246368,-18,-16.9390907287598,12525.3291015625
572,-20.0755555555556,-15.5705471038818,1.45050048828125,-16.8355555555556,-16.9482154846191,11658.8076171875
573,-14,-15.5603122711182,1.40124440193176,-14.8349514563107,-16.9310569763184,13631.5380859375
574,-13.1272727272727,-15.5144939422607,1.64850115776062,-17.1454545454545,-16.9292545318604,13042.3095703125
575,-18.7938144329897,-15.5331201553345,1.37978768348694,-9.96907216494845,-16.9023818969727,14003.7744140625
576,-16.6774193548387,-15.5180292129517,1.31458854675293,-18.7595307917889,-16.9667797088623,14381.005859375
577,-16,-15.4891929626465,1.24345755577087,-18.6,-17.0193328857422,14305.1640625
578,-9.78388278388278,-15.4744186401367,1.49723923206329,-21.2197802197802,-17.0541305541992,14757.8046875
579,-16,-15.4956865310669,-0.0375481843948364,-17.3689320388349,-17.0731773376465,16150.578125
580,-17.0778210116732,-15.5020313262939,1.26048350334167,-20.0428015564202,-17.0601291656494,16412.068359375
581,-10,-15.4753646850586,1.26747262477875,-14,-17.0549831390381,14931.646484375
582,-20.2132701421801,-15.4954948425293,1.40595018863678,-14,-17.0549831390381,14690.12109375
583,-16.1397849462366,-15.4830942153931,1.51417720317841,-17.3225806451613,-17.0371322631836,13728.236328125
584,-22.9643916913947,-15.5116939544678,-0.363838493824005,-20,-17.0426864624023,17044.91796875
585,-16.1875,-15.5262775421143,1.17616498470306,-22,-17.096019744873,16585.298828125
586,-20,-15.5129442214966,1.32311844825745,-13.196261682243,-17.0886039733887,14213.8486328125
587,-12.212389380531,-15.4605369567871,-0.0359178781509399,-16.3893805309735,-17.0512008666992,17331.357421875
588,-18.3245033112583,-15.4857149124146,1.34564411640167,-18,-17.0475463867188,16331.59375
589,-18.7517482517483,-15.5040588378906,1.41800546646118,-18.4965034965035,-17.0832710266113,14950.8349609375
590,-6.73094170403587,-15.4555988311768,1.37482357025146,-13.5470852017937,-17.0935840606689,18750.13671875
591,-15.3713527851459,-15.4457731246948,1.32826137542725,-18.6206896551724,-17.1104354858398,18173.396484375
592,-20,-15.4724397659302,-0.099043607711792,-13.5275590551181,-17.1072864532471,14904.05078125
593,-8,-15.3857727050781,1.27710461616516,-14,-17.099494934082,19251.6640625
594,-16.602510460251,-15.3962154388428,0.684256792068481,-20,-17.1261615753174,17890.51171875
595,-13.452380952381,-15.3890075683594,1.55966830253601,-6.08730158730159,-17.0734119415283,16496.72265625
596,-18,-15.4248371124268,1.03341686725616,-20.5357142857143,-17.1151561737061,18198.07421875
597,-18,-15.4115037918091,1.63860273361206,-12,-17.0751571655273,17121.810546875
598,-14,-15.365026473999,0.0921235680580139,-18.26875,-17.0805644989014,17152.775390625
599,-11.4849315068493,-15.3482580184937,1.57735323905945,-16.8356164383562,-17.1261348724365,16535
600,-19.1081081081081,-15.3811950683594,-0.433153390884399,-22,-17.1766948699951,18678.498046875
601,-13.474006116208,-15.3729019165039,1.48029887676239,-18,-17.2004566192627,17999.0546875
602,-14.8493150684932,-15.4185647964478,1.38019382953644,-14.972602739726,-17.1669387817383,15644.103515625
603,-6,-15.3918981552124,1.45224118232727,-18,-17.1802711486816,19445.43359375
604,-10.6092715231788,-15.3692922592163,1.52488327026367,-14.0529801324503,-17.2072925567627,21087.43359375
605,-11.6723646723647,-15.3448791503906,0.985617637634277,-22.7293447293447,-17.2683963775635,19006.8671875
606,-19.2702702702703,-15.3648405075073,1.5604612827301,-20.1432432432432,-17.2870445251465,16593.046875
607,-12.5641025641026,-15.3685998916626,1.5761958360672,-10.8717948717949,-17.2928562164307,18067.9375
608,-14,-15.3437747955322,1.0610898733139,-18,-17.291015625,18401.912109375
609,-12.5956284153005,-15.3210773468018,1.89756727218628,-20,-17.277681350708,19522.119140625
610,-17.1671924290221,-15.3120899200439,0.135879755020142,-18.9211356466877,-17.267053604126,20037.46875
611,-12,-15.2892646789551,1.61069202423096,-6,-17.1684246063232,18120.607421875
612,-17.7397260273973,-15.289137840271,1.53093087673187,-14.5433789954338,-17.1433715820312,18691.84765625
613,-12.8177083333333,-15.2405843734741,-0.22771492600441,-18.5208333333333,-17.1594715118408,20318.189453125
614,-9.66666666666667,-15.2132387161255,1.45573961734772,-19.1666666666667,-17.1653633117676,19708.40234375
615,-12.8843930635838,-15.18479347229,1.42553150653839,-18.121387283237,-17.1618309020996,18094.955078125
616,-16.3243243243243,-15.2205209732056,1.36261451244354,-18,-17.1582412719727,20847.77734375
617,-10.5190839694656,-15.1973142623901,1.43041574954987,-14.9389312977099,-17.1378326416016,21758.9921875
618,-14,-15.1916961669922,1.55506420135498,-20,-17.1495609283447,20364.572265625
619,-20,-15.194655418396,1.18108880519867,-13.5330739299611,-17.1203136444092,19992.529296875
620,-19.2785714285714,-15.2091245651245,1.61586391925812,-21.5,-17.1650524139404,21539.478515625
621,-16.2083333333333,-15.2041940689087,1.57493090629578,-22,-17.176586151123,20343.994140625
622,-16.1957446808511,-15.2111749649048,1.52160727977753,-12.8765957446809,-17.1469116210938,19277.576171875
623,-6.61181434599156,-15.1305894851685,1.49388301372528,-20.3206751054852,-17.1987323760986,22513.16796875
624,-4,-15.0974025726318,1.53620374202728,-12,-17.1430854797363,21093.017578125
625,-10,-15.0174026489258,1.64213144779205,-12,-17.1351108551025,21041.52734375
626,-17.3971631205674,-15.0000524520874,1.62606084346771,-20.0602836879433,-17.1576633453369,20888.0625
627,-14,-14.969557762146,1.61965250968933,-16,-17.1347427368164,19910.34375
628,-14,-14.9962244033813,1.66795670986176,-12,-17.1347427368164,23738.341796875
629,-16,-14.9824314117432,1.69921255111694,-18,-17.117883682251,22335.501953125
630,-21.2554455445545,-14.9956903457642,-0.338985800743103,-15.1188118811881,-17.1035652160645,19771.521484375
631,-12.9695431472081,-14.9612989425659,1.42554783821106,-14.9238578680203,-17.0827808380127,19804.375
632,-12.4339622641509,-14.9508581161499,1.4118857383728,-15.3207547169811,-17.0905818939209,21668.365234375
633,-19.4351851851852,-14.9833011627197,1.28686332702637,-19.6111111111111,-17.1195945739746,23260.05859375
634,-10.7452229299363,-14.9617643356323,1.08137369155884,-14.0191082802548,-17.0856914520264,21008.9140625
635,-18.265306122449,-14.9768667221069,1.50063788890839,-20,-17.1390247344971,22378.6875
636,-16.4908536585366,-14.9814863204956,-0.217187166213989,-17.3871951219512,-17.1058292388916,20907.57421875
637,-16.922480620155,-14.9863920211792,1.7402195930481,-20,-17.0791625976562,20189.04296875
638,-13.7343173431734,-14.942551612854,1.71137809753418,-13.7527675276753,-17.0108470916748,20632.123046875
639,-10.7163461538462,-14.9071416854858,0.124720335006714,-12.1875,-16.9587631225586,21796.703125
640,-7.0921052631579,-14.8370475769043,1.65155792236328,-11.1315789473684,-16.9210224151611,22859.73828125
641,-14.6212121212121,-14.9478549957275,1.61412823200226,-15.6022727272727,-16.8917045593262,21656.556640625
642,-8,-14.9013929367065,1.66886901855469,-20,-16.9131813049316,20122.796875
643,-10.5436241610738,-14.8609313964844,1.66358971595764,-12.0134228187919,-16.8528957366943,21641.08203125
644,-12.5244956772334,-14.8061780929565,1.69974458217621,-17.7060518731988,-16.8533496856689,25560.79296875
645,-16.8958990536278,-14.7721519470215,-0.0258987545967102,-24,-16.8618221282959,21534.671875
646,-18.9375,-14.8048858642578,1.57862389087677,-20.0511363636364,-16.8690624237061,21818.041015625
647,-18.9090909090909,-14.8642807006836,1.53834652900696,-16.6727272727273,-16.8468799591064,22801.455078125
648,-11.9863481228669,-14.8812046051025,1.54479646682739,-24,-16.8868789672852,22387.48046875
649,-19.210332103321,-14.9159393310547,1.53315341472626,-15.5571955719557,-16.9105949401855,20605.94140625
650,-18,-14.94260597229,1.3841118812561,-14.8561151079137,-16.873119354248,21030.9765625
651,-4,-14.8359394073486,1.36047148704529,-22,-16.9131202697754,23958.548828125
652,-15.8372093023256,-14.8215198516846,1.82735919952393,-20.1255813953488,-16.9539585113525,22169.630859375
653,-14.3170731707317,-14.7969675064087,1.66230380535126,-16.8243902439024,-16.9327869415283,20309.642578125
654,-12,-14.7858476638794,1.64007115364075,-22,-16.9684810638428,21301.787109375
655,-16.704641350211,-14.7809410095215,0.325952172279358,-11.1561181434599,-16.9081192016602,23509.6875
656,-8.50175438596491,-14.6995639801025,1.62340366840363,-18.9298245614035,-16.952299118042,22493.767578125
657,-10,-14.6805238723755,1.59441542625427,-18,-16.93896484375,20959.927734375
658,-18.0260223048327,-14.6940298080444,1.5924186706543,-13.6951672862454,-16.9301261901855,23020.4140625
659,-10.1965811965812,-14.6591863632202,0.392497032880783,-17.3418803418803,-16.9104499816895,23023.97265625
660,-8,-14.5997495651245,1.61749470233917,-18,-16.9202575683594,23010.52734375
661,-12.740157480315,-14.588173866272,1.29535353183746,-10.1338582677165,-16.8885135650635,22182.66015625
662,-17.3224299065421,-14.6236553192139,0.588810443878174,-18.303738317757,-16.901496887207,23171.08203125
663,-22,-14.6584768295288,1.77321481704712,-14,-16.8481636047363,24927.708984375
664,-13.2759856630824,-14.6397752761841,0.164799064397812,-18.8817204301075,-16.8243026733398,22029.671875
665,-16.3674418604651,-14.6688928604126,1.74182796478271,-16,-16.8109703063965,20775.31640625
666,-13.5762711864407,-14.6617126464844,1.68689930438995,-20.90799031477,-16.8506870269775,21426.212890625
667,-18,-14.6538362503052,1.62802469730377,-18,-16.8529987335205,23235.982421875
668,-20.187134502924,-14.6856527328491,1.56496298313141,-19.1169590643275,-16.857084274292,22013.22265625
669,-16.4977777777778,-14.800332069397,1.39111173152924,-16.3555555555556,-16.8194561004639,24297.7890625
670,-16,-14.8067712783813,1.28366303443909,-20,-16.8304920196533,25312.107421875
671,-16.1588235294118,-14.8878307342529,1.43344664573669,-15.5117647058824,-16.8005695343018,22780.279296875
672,-16.4909090909091,-14.9011039733887,0.738997340202332,-14.6618181818182,-16.7726001739502,22320.365234375
673,-13.0339943342776,-14.8946619033813,1.21914350986481,-17.2294617563739,-16.8474636077881,23186.890625
674,-11.418410041841,-14.8741178512573,1.83240175247192,-18.0125523012552,-16.8342132568359,21821.888671875
675,-13.7769784172662,-14.8574934005737,1.1350679397583,-22.3669064748201,-16.8667964935303,25828.263671875
676,-16.8369565217391,-14.9053077697754,1.25522208213806,-22,-16.9073600769043,21122.3828125
677,-12.3103448275862,-14.8897104263306,1.58035755157471,-17.4926108374384,-16.9033889770508,22341.099609375
678,-8,-14.8730554580688,1.4611781835556,-8,-16.8349552154541,24654.33984375
679,-18,-14.9186553955078,1.63231825828552,-14,-16.8190879821777,24306.31640625
680,-17.6093294460641,-14.916051864624,0.902937054634094,-17.1020408163265,-16.8504581451416,23840.33203125
681,-14.6439024390244,-14.931077003479,0.734237134456635,-16.4536585365854,-16.8462772369385,23295.9296875
682,-4,-14.8437471389771,1.69839572906494,-18,-16.8441219329834,22204.357421875
683,-11.1267605633803,-14.845742225647,1.75835263729095,-18,-16.8307876586914,25868.11328125
684,-9.44252873563218,-14.7969026565552,0.97858065366745,-16,-16.8431015014648,26553.0625
685,-9.37254901960784,-14.7334280014038,1.64350831508636,-16.8274509803922,-16.8442993164062,26846.595703125
686,-12,-14.6812047958374,1.57709860801697,-22,-16.8699569702148,23652.064453125
687,-14.9700748129676,-14.7143392562866,1.73607158660889,-16.2069825436409,-16.871337890625,22763.232421875
688,-13.3412969283276,-14.7099475860596,1.51269173622131,-14.5972696245734,-16.835319519043,22480.021484375
689,-13.3856655290102,-14.6809406280518,1.35903775691986,-14.2730375426621,-16.8352546691895,22293.279296875
690,-22.8363636363636,-14.7207584381104,1.28505623340607,-12.1454545454545,-16.808256149292,24939.88671875
691,-16.0642570281125,-14.7211866378784,1.09994745254517,-15.2409638554217,-16.7920475006104,24352.3828125
692,-11.0315315315315,-14.674729347229,1.2624922990799,-14.5743243243243,-16.7610492706299,23804.158203125
693,-12,-14.625319480896,1.58459055423737,-18,-16.753833770752,24667.24609375
694,-18,-14.655966758728,1.7800817489624,-16,-16.6938343048096,24754.03125
695,-10.2139037433155,-14.6140298843384,1.80938851833344,-18,-16.6805019378662,23282.80078125
696,-12,-14.5740299224854,0.513837218284607,-16.3550295857988,-16.6562004089355,22328.560546875
697,-20,-14.5806970596313,1.61101448535919,-15.7865168539326,-16.6560554504395,24101.92578125
698,-18.2317073170732,-14.6078910827637,1.18969631195068,-22.109756097561,-16.7098217010498,26671.283203125
699,-14.3255269320843,-14.6126527786255,0.340498447418213,-13.3067915690867,-16.6981201171875,24493.1953125
700,-15.4705882352941,-14.5957908630371,1.12850952148438,-14.343137254902,-16.6806468963623,28267.919921875
701,-13.1336032388664,-14.586950302124,-0.124270796775818,-17.4048582995951,-16.6751499176025,27241.78515625
702,-8.13963963963964,-14.5176839828491,1.54685747623444,-12.7207207207207,-16.6343612670898,26577.42578125
703,-14,-14.4851837158203,1.41701352596283,-20.7259786476868,-16.6531600952148,25036.580078125
704,-16,-14.4532957077026,0.749171853065491,-16.0865800865801,-16.6728515625,24830.859375
705,-11.0035587188612,-14.4407062530518,1.33014726638794,-16.9288256227758,-16.702112197876,29268.798828125
706,-14.8616600790514,-14.4002456665039,1.23487508296967,-16.0513833992095,-16.698371887207,25000.91796875
707,-20,-14.4328012466431,1.10648512840271,-18.0684931506849,-16.7444801330566,25585.98828125
708,-14.0887096774194,-14.4320821762085,0.879397213459015,-15.2661290322581,-16.7502994537354,26716.546875
709,-12,-14.3787479400635,1.11832475662231,-18,-16.7495727539062,23486.798828125
710,-12,-14.3920812606812,1.59783065319061,-10,-16.6962394714355,24353.64453125
711,-14.9321266968326,-14.3840932846069,-0.0913528352975845,-20.7194570135747,-16.7535018920898,25304.37109375
712,-14.5916955017301,-14.4013719558716,1.74761915206909,-18.477508650519,-16.7664775848389,22580.65234375
713,-21.283422459893,-14.4171390533447,0.143394887447357,-20.7860962566845,-16.7918548583984,23471.9921875
714,-18.4223194748359,-14.4407634735107,1.51838421821594,-16.0153172866521,-16.8187656402588,24131.3359375
715,-11.4460227272727,-14.4342479705811,1.39648842811584,-14.5028409090909,-16.8224601745605,27174.48828125
716,-8,-14.3795032501221,1.43277454376221,-14,-16.7957935333252,31208.89453125
717,-12.811320754717,-14.3618946075439,1.4596643447876,-14.7547169811321,-16.7498474121094,29003.787109375
718,-13.3930131004367,-14.3005743026733,1.24475431442261,-18.235807860262,-16.7827320098877,27527.810546875
719,-11.2507936507936,-14.3355808258057,1.58165121078491,-15.4984126984127,-16.7793884277344,25087.38671875
720,-8,-14.2934665679932,1.73976540565491,-16,-16.769344329834,26198.990234375
721,-13.7401129943503,-14.2757034301758,1.80732393264771,-16,-16.756010055542,22979.8828125
722,-10.9297297297297,-14.2147302627563,-0.139676257967949,-14.4972972972973,-16.7404232025146,27727.2734375
723,-14.8192771084337,-14.2201919555664,1.65792632102966,-18.5512048192771,-16.7651977539062,24827.515625
724,-20.2824858757062,-14.2678937911987,1.50855767726898,-15.0169491525424,-16.7510070800781,30502.541015625
725,-11.042328042328,-14.2162160873413,1.58047425746918,-22,-16.8312129974365,26608.15625
726,-16.7417218543046,-14.2166452407837,1.67373323440552,-12.5894039735099,-16.7900791168213,25382.013671875
727,-8,-14.163311958313,1.79113209247589,-14,-16.7594127655029,26056.5
728,-17.0742857142857,-14.2119159698486,0.351718217134476,-17.2971428571429,-16.7332611083984,29434.703125
729,-11.3620689655172,-14.1809959411621,1.70941066741943,-20.1379310344828,-16.7517223358154,25156.251953125
730,-13.3636363636364,-14.1562356948853,1.40030646324158,-16.2482517482517,-16.7264251708984,27653.3203125
731,-8.92822966507177,-14.1490898132324,0.861992239952087,-12.1913875598086,-16.7143688201904,24510.36328125
732,-22,-14.1610012054443,1.05167627334595,-16.7662835249042,-16.7328090667725,26372.509765625
733,-15.7142857142857,-14.158164024353,0.457028448581696,-15.8328267477204,-16.7228775024414,26864.50390625
734,-11.6041666666667,-14.0824279785156,0.900560557842255,-15.5744047619048,-16.6933727264404,27245.875
735,-17.6332179930796,-14.0920667648315,0.873266220092773,-17.2768166089965,-16.6618843078613,27187.25
736,-15.2205882352941,-14.0602054595947,0.980748951435089,-19.1397058823529,-16.701509475708,26301.599609375
737,-14.4873949579832,-14.0753707885742,1.34265244007111,-12.2436974789916,-16.6738700866699,27367.484375
738,-22,-14.09987449646,0.526258111000061,-16.4054982817869,-16.6632404327393,25778.19140625
739,-9.89175257731959,-14.0408086776733,1.42587089538574,-15.5154639175258,-16.643367767334,25665.51171875
740,-10.7272727272727,-14.0674514770508,1.56203258037567,-20.3444976076555,-16.6886825561523,27295.517578125
741,-16,-14.0716409683228,1.70462036132812,-15.6423982869379,-16.6688289642334,28423.078125
742,-11.6410256410256,-14.0159149169922,1.76160168647766,-16.6666666666667,-16.6897563934326,24670.552734375
743,-8.21301775147929,-14.017333984375,1.74859964847565,-18,-16.716423034668,24367.193359375
744,-20,-14.0399837493896,0.112293809652328,-14.8126801152738,-16.6818389892578,26107.169921875
745,-13.3494809688581,-14.0392980575562,1.73103702068329,-24,-16.8012580871582,24698.107421875
746,-9.56807511737089,-13.9830856323242,1.20119142532349,-12.906103286385,-16.750394821167,31655.607421875
747,-20,-13.9964189529419,1.58527529239655,-7.47422680412371,-16.7202205657959,26409.46484375
748,-19.7322834645669,-14.0346336364746,1.56864869594574,-16.4461942257218,-16.7080707550049,28936.7890625
749,-15.3693931398417,-14.0605306625366,1.03038489818573,-24,-16.7558326721191,26167.134765625
750,-13.7906336088154,-14.0250816345215,0.622315227985382,-13.9641873278237,-16.702262878418,29675.791015625
751,-18,-14.0552539825439,1.37203109264374,-14.320819112628,-16.677734375,27424.83984375
752,-16.276,-14.0647659301758,0.518791198730469,-12.716,-16.662691116333,28532.435546875
753,-7.56435643564356,-14.0751953125,1.66712069511414,-12.3564356435644,-16.6250648498535,27897.27734375
754,-18,-14.1244659423828,1.57300233840942,-14.7553191489362,-16.6297473907471,29056.6015625
755,-11.1552346570397,-14.121018409729,0.635478436946869,-16.3898916967509,-16.5874862670898,26655.142578125
756,-15.3355704697987,-14.0947866439819,1.59149742126465,-20.1644295302013,-16.58762550354,32153.94140625
757,-18.5219512195122,-14.1345052719116,1.61427843570709,-16.5121951219512,-16.6252288818359,27850.048828125
758,-18,-14.161171913147,1.54240310192108,-14.7051282051282,-16.6032638549805,28086.373046875
759,-10,-14.1438684463501,1.54175698757172,-20,-16.6032638549805,28360.783203125
760,-9.08235294117647,-14.0899686813354,1.65070593357086,-18,-16.5971221923828,27689.525390625
761,-14.9633507853403,-14.1097249984741,1.77551031112671,-22.544502617801,-16.7074184417725,28872.177734375
762,-12.0891089108911,-14.0720539093018,1.83110976219177,-16.4488448844884,-16.720121383667,29354.759765625
763,-16,-14.0932683944702,1.57691502571106,-22,-16.7433166503906,28819.5234375
764,-20,-14.1621580123901,1.35544562339783,-17.5649717514124,-16.7326374053955,28328.896484375
765,-9.38759689922481,-14.1388473510742,1.33286392688751,-17.3992248062016,-16.7278232574463,31052.716796875
766,-14.7932960893855,-14.1286392211914,1.53521645069122,-9.33519553072626,-16.6700592041016,31923.955078125
767,-16.5525606469003,-14.1688642501831,1.57570612430573,-22,-16.7171325683594,29596.134765625
768,-14.3248175182482,-14.1710290908813,1.5641371011734,-18.6167883211679,-16.7079124450684,29576.787109375
769,-10.8039215686275,-14.1097221374512,1.57973873615265,-15.1372549019608,-16.7186050415039,29157.349609375
770,-14,-14.0745315551758,1.6297413110733,-19.6,-16.7059383392334,29301.71875
771,-13.2226890756303,-14.0546255111694,1.61050999164581,-14.0714285714286,-16.6530818939209,26750.30078125
772,-10.9239543726236,-14.0194807052612,1.56900370121002,-8.21673003802281,-16.6220149993896,29639.810546875
773,-11.5196506550218,-14.0521993637085,-0.988610088825226,-17.4585152838428,-16.602933883667,29537.80859375
774,-18.6535433070866,-14.1498889923096,1.49490571022034,-20.6535433070866,-16.6606254577637,28557.203125
775,-6,-14.1232223510742,0.81238842010498,-20.1004784688995,-16.7146282196045,30240.240234375
776,-15.2426900584795,-14.1088609695435,1.55921101570129,-20,-16.7142276763916,29182.041015625
777,-8.51442307692308,-14.0722913742065,1.56436121463776,-16.2019230769231,-16.7155723571777,29229.453125
778,-12.9677419354839,-14.065408706665,1.48392117023468,-18.0860215053763,-16.7561454772949,30638.423828125
779,-10,-14.025408744812,1.62124109268188,-12,-16.7161464691162,31416.53125
780,-18,-14.0037040710449,1.41728734970093,-9.7177033492823,-16.6801376342773,30241.88671875
781,-9.59895833333333,-13.9812335968018,1.50447392463684,-12.078125,-16.6611671447754,30328.703125
782,-9.34210526315789,-13.9606218338013,0.652293562889099,-18.5833333333333,-16.6829166412354,30849.96875
783,-11.675,-13.9088888168335,1.73657989501953,-18.5,-16.6755104064941,30051.6953125
784,-8,-13.890585899353,1.83308100700378,-22,-16.7287178039551,28236.666015625
785,-15.9074074074074,-13.8748664855957,1.85136425495148,-14.9259259259259,-16.6948890686035,30749.755859375
786,-9.61324041811847,-13.8290166854858,0.357701450586319,-17.3344947735192,-16.6945381164551,28915.166015625
787,-16,-13.8228673934937,1.7219752073288,-22,-16.7078704833984,31982.412109375
788,-14.2690909090909,-13.8264322280884,1.72519707679749,-18.4909090909091,-16.7394580841064,30716.5
789,-18,-13.8749885559082,0.134912610054016,-13.1183431952663,-16.7456645965576,30115.861328125
790,-16,-13.9343748092651,1.7273325920105,-24,-16.8314533233643,30709.138671875
791,-14.2272727272727,-13.9317493438721,1.66776525974274,-18,-16.8474388122559,29822.98046875
792,-8,-13.9317493438721,1.75109469890594,-16,-16.8207721710205,30329.1328125
793,-12.0974358974359,-13.9421081542969,1.50997829437256,-15.6871794871795,-16.8452644348145,30766.291015625
794,-10.13353115727,-13.9261684417725,1.88268744945526,-18.700296735905,-16.8518905639648,32784.15234375
795,-15.4036697247706,-13.916220664978,-0.482431292533875,-18.8532110091743,-16.8175792694092,32293.9296875
796,-20,-13.923303604126,2.05892992019653,-17.2075471698113,-16.7986221313477,31226.728515625
797,-11.0995024875622,-13.8712387084961,1.8039470911026,-14.1890547263682,-16.7820663452148,28854.490234375
798,-18.2286585365854,-13.9128551483154,1.83282589912415,-18.9390243902439,-16.748327255249,30623.263671875
799,-22.6629213483146,-13.9358720779419,0.265532612800598,-13.6179775280899,-16.7353992462158,31966.96875
800,-17.5072463768116,-13.9325876235962,0.717109680175781,-17.1086956521739,-16.750415802002,31631.87890625
801,-8,-13.9592542648315,1.87206029891968,-18,-16.7237491607666,31084.15234375
802,-4,-13.8803386688232,1.95811593532562,-18,-16.7095775604248,29194.380859375
803,-19.4077669902913,-13.9142761230469,1.2357325553894,-18.995145631068,-16.724048614502,29218.173828125
804,-14,-13.9276094436646,1.97648417949677,-13.5862068965517,-16.6679573059082,30792.265625
805,-15.0899470899471,-13.9168453216553,0.474145531654358,-17.3544973544974,-16.7092781066895,31139.150390625
806,-15.6166219839142,-13.9642772674561,-0.195486903190613,-15.4825737265416,-16.6862964630127,30165.54296875
807,-18.82,-14.0230779647827,0.710915684700012,-20,-16.6996307373047,34870.33203125
808,-10,-13.9695701599121,1.83408570289612,-12,-16.6883277893066,30227.189453125
809,-16.2903225806452,-14.0101957321167,1.6868908405304,-20.7612903225806,-16.711124420166,29710.45703125
810,-16,-14.0635290145874,0.873891115188599,-12.7758620689655,-16.6762981414795,29775.931640625
811,-20.770618556701,-14.1170673370361,1.92565429210663,-17.3350515463918,-16.7243041992188,30789.484375
812,-14.7794117647059,-14.1001138687134,1.78226613998413,-12.4852941176471,-16.6855163574219,31085.265625
813,-13,-14.040114402771,1.635005235672,-15.6808510638298,-16.6967220306396,31468.92578125
814,-8.55555555555556,-14.0086421966553,0.153352856636047,-18.3434343434343,-16.6931324005127,31715.91015625
815,-13.544776119403,-13.9898242950439,1.56434035301208,-15.2537313432836,-16.688159942627,31830.810546875
816,-16.3937677053824,-14.0086088180542,1.47742927074432,-14.2266288951841,-16.6436157226562,33169.83984375
817,-8.36507936507937,-13.944375038147,1.60023069381714,-19.0582010582011,-16.650671005249,32379.369140625
818,-18.8899676375405,-13.9357290267944,1.40619885921478,-14.4563106796117,-16.6196002960205,31111.02734375
819,-14.0070422535211,-13.9191246032715,1.51066255569458,-3.7112676056338,-16.5353050231934,30492.873046875
820,-10,-13.8791246414185,1.74892544746399,-14,-16.495304107666,30909.615234375
821,-16.6734693877551,-13.8825550079346,1.93714463710785,-11.869387755102,-16.4710216522217,30697.048828125
822,-10.3447204968944,-13.8415784835815,1.96184742450714,-17.4068322981366,-16.4893226623535,29817.568359375
823,-10,-13.8213510513306,1.97891247272491,-18,-16.4944591522217,30621.2890625
824,-20.8936170212766,-13.884521484375,1.88155233860016,-15.7659574468085,-16.4794826507568,30810.544921875
825,-6.84057971014493,-13.8382778167725,1.61494314670563,-16.6376811594203,-16.4412899017334,33752.21875
826,-16.8656126482213,-13.8384704589844,1.50089716911316,-14.0750988142292,-16.3884563446045,31061.03515625
827,-10,-13.8230667114258,1.57253432273865,-16.7757009345794,-16.383674621582,33177.99609375
828,-6,-13.8097333908081,1.66022109985352,-12,-16.4103412628174,33553.40625
829,-14.1964285714286,-13.7843770980835,1.67907619476318,-16,-16.4236755371094,31192.419921875
830,-7.3,-13.7156476974487,1.91657567024231,-16.5384615384615,-16.4199180603027,32254.71875
831,-11.054347826087,-13.6917171478271,1.2099711894989,-18.2608695652174,-16.4319667816162,31499.708984375
832,-19.3854389721627,-13.7942867279053,1.32460033893585,-17.2141327623126,-16.4267292022705,33191.7578125
833,-10,-13.7867736816406,1.61391818523407,-16,-16.4133949279785,31161.89453125
834,-10.3292181069959,-13.792685508728,1.90870368480682,-21.0123456790123,-16.4468097686768,31649.02734375
835,-14,-13.8235349655151,1.75726842880249,-21.3303964757709,-16.4768295288086,31754.388671875
836,-11.9122807017544,-13.8229513168335,0.309333145618439,-13.187134502924,-16.4180755615234,32344.029296875
837,-20.8810810810811,-13.8623571395874,1.69475114345551,-22,-16.4566955566406,32996.1015625
838,-20.8231884057971,-13.9122362136841,0.162712231278419,-19.0347826086957,-16.4862785339355,32719.064453125
839,-16.1201413427562,-13.9304666519165,1.42853188514709,-18.3462897526502,-16.5134334564209,33311.98046875
840,-20.8743455497382,-13.9173860549927,-0.537493288516998,-14.2670157068063,-16.5275783538818,32330.41796875
841,-16.7754237288136,-13.9221286773682,1.26610314846039,-16.7754237288136,-16.5378093719482,33373.97265625
842,-14.9239543726236,-13.9480781555176,1.479407787323,-18.148288973384,-16.5616359710693,33669.33984375
843,-10,-13.9347429275513,1.7929482460022,-16,-16.5483016967773,32134.95703125
844,-18.8154761904762,-13.9401807785034,0.163482189178467,-14.8373015873016,-16.5405521392822,34916.73828125
845,-14,-13.9654216766357,0.934841394424438,-16,-16.5272178649902,31856.09375
846,-12.7554945054945,-13.9704570770264,0.677711486816406,-18.3049450549451,-16.5402183532715,32308.607421875
847,-12.2612612612613,-13.9188652038574,1.87913966178894,-22.2612612612613,-16.583381652832,31249.9375
848,-17.5747126436782,-13.9144859313965,2.15434336662292,-18.6494252873563,-16.5603122711182,32388.72265625
849,-9.1501976284585,-13.8799839019775,1.78016638755798,-15.0790513833992,-16.5721282958984,33189.4921875
850,-9.15948275862069,-13.8379096984863,1.7123806476593,-17.2327586206897,-16.5913925170898,32154.70703125
851,-8,-13.8036851882935,1.58813786506653,-22,-16.6220245361328,30915.92578125
852,-14.5214285714286,-13.846230506897,1.65234529972076,-14,-16.6305541992188,31041.03515625
853,-13.9815950920245,-13.8461084365845,0.802396893501282,-16.1717791411043,-16.600191116333,32145.390625
854,-4,-13.7661085128784,-0.0195135995745659,-16,-16.5996150970459,33205.0703125
855,-7.70731707317073,-13.7441339492798,1.88056945800781,-21,-16.6267585754395,30590.685546875
856,-18,-13.7650556564331,1.08981704711914,-21.0840336134454,-16.660306930542,33091.109375
857,-14.4047619047619,-13.7277536392212,0.979735374450684,-15.8571428571429,-16.6455669403076,30046.177734375
858,-18,-13.7538280487061,-0.172721415758133,-18.5235602094241,-16.6672821044922,33561.3671875
859,-10.3102310231023,-13.7425632476807,1.70042645931244,-12.8019801980198,-16.6326293945312,33220.875
860,-12.4728682170543,-13.7457160949707,1.61919641494751,-14.8062015503876,-16.6646690368652,31656.318359375
861,-20,-13.779501914978,1.73773694038391,-13.7826086956522,-16.6184253692627,31381.255859375
862,-18.1384615384615,-13.803147315979,1.65620768070221,-18.1846153846154,-16.6164722442627,31655.099609375
863,-14,-13.7545919418335,1.58472752571106,-8,-16.5312309265137,31576.8828125
864,-17.5373134328358,-13.7486915588379,-0.165207162499428,-18.8208955223881,-16.549934387207,33103.25390625
865,-12.9138755980861,-13.7584762573242,1.63848173618317,-13.511961722488,-16.5433292388916,32490.20703125
866,-12.4672131147541,-13.7882585525513,1.82249867916107,-18,-16.569995880127,32417.529296875
867,-24,-13.862850189209,1.80343019962311,-11.9154228855721,-16.5510673522949,31843.796875
868,-6,-13.8135623931885,1.86010730266571,-16,-16.5361614227295,32099.66015625
869,-14.9029126213592,-13.8379096984863,1.91306626796722,-18,-16.5528392791748,54457.63671875
870,-10,-13.851243019104,0.945745408535004,-16.4330357142857,-16.5557250976562,36166.84765625
871,-13.8802395209581,-13.8521776199341,1.8068026304245,-8.41317365269461,-16.5051460266113,33720.01171875
872,-10.8214285714286,-13.8514547348022,1.58727383613586,-10.0714285714286,-16.4756412506104,30995.990234375
873,-17.4831804281346,-13.869215965271,1.81393766403198,-18.3058103975535,-16.4740047454834,30147.298828125
874,-16.9472361809045,-13.846981048584,1.19514107704163,-22.9472361809045,-16.5268745422363,33229.79296875
875,-15.0581395348837,-13.8737516403198,0.116499304771423,-15.6860465116279,-16.4847812652588,32263.361328125
876,-16,-13.8688068389893,-0.0264546871185303,-20,-16.5341854095459,30386.234375
877,-18.8981481481481,-13.9414615631104,-0.444216817617416,-15.6898148148148,-16.5454502105713,32226.23046875
878,-12.2369668246446,-13.9092121124268,-0.229532152414322,-17.0947867298578,-16.5441017150879,33154.828125
879,-16,-13.9401321411133,1.80986082553864,-8,-16.4631824493408,31977.912109375
880,-12.9043062200957,-13.9370698928833,1.89450120925903,-16.7081339712919,-16.4662475585938,32220.2421875
881,-16,-13.9842157363892,1.3298168182373,-22.0487804878049,-16.5319633483887,31342.615234375
882,-12.2304147465438,-13.9190855026245,1.88213539123535,-18,-16.5401878356934,29371.109375
883,-8,-13.8676567077637,1.91536402702332,-16,-16.5413017272949,30757.26953125
884,-8.50892857142857,-13.8470211029053,2.04875349998474,-15.7366071428571,-16.5423851013184,31966.408203125
885,-13.1408450704225,-13.8170719146729,2.07435131072998,-12.387323943662,-16.509786605835,29833.71875
886,-4.27619047619048,-13.7441101074219,1.99325060844421,-20,-16.5155220031738,35365.57421875
887,-6.80392156862745,-13.6928873062134,0.344102710485458,-22,-16.5805644989014,31175.771484375
888,-8,-13.5995531082153,2.00873970985413,-12,-16.5511951446533,30588.49609375
889,-12,-13.6136083602905,1.25767648220062,-16.5391705069124,-16.5580196380615,32785.28515625
890,-14.8963730569948,-13.6414031982422,1.43356895446777,-24,-16.582389831543,30347.8359375
891,-11.4326241134752,-13.6109533309937,1.94808506965637,-20,-16.6114406585693,36482.234375
892,-20,-13.6666793823242,0.184692740440369,-12.2461538461538,-16.5819702148438,28886.7890625
893,-21.7472527472527,-13.7569074630737,0.135899901390076,-15.9868131868132,-16.5685482025146,30228.509765625
894,-13.6912442396313,-13.7148504257202,1.91582977771759,-18.4285714285714,-16.5926551818848,29915.76171875
895,-17.3865030674847,-13.7417631149292,-0.93117094039917,-13.898773006135,-16.5253143310547,31612.04296875
896,-6,-13.7179765701294,2.0121898651123,-16,-16.5459384918213,29040.9140625
897,-18.7265306122449,-13.7094869613647,2.0860583782196,-22.6816326530612,-16.6473217010498,33239.6328125
898,-12.5054945054945,-13.6613082885742,2.01149773597717,-12.6153846153846,-16.6217842102051,30916.400390625
899,-6,-13.5988445281982,1.87470149993896,-18,-16.5817832946777,29751.8359375
900,-15.0852130325815,-13.6074752807617,1.98707044124603,-22.6340852130326,-16.6395835876465,32767.95703125
901,-18.3727810650888,-13.6099605560303,0.650495886802673,-17.2958579881657,-16.6594161987305,31272.65234375
902,-14.9492753623188,-13.6011161804199,1.42815911769867,-16,-16.6813087463379,31248.353515625
903,-20,-13.6840200424194,2.03054332733154,-11.4351145038168,-16.6751670837402,30658.1484375
904,-12.6394849785408,-13.6482839584351,2.05887746810913,-18.9613733905579,-16.7032089233398,28985.810546875
905,-16.7153284671533,-13.6853513717651,2.07796216011047,-15.6569343065693,-16.6983222961426,32554.208984375
906,-16.8347826086957,-13.6953468322754,2.09208369255066,-10.8,-16.635892868042,35189.7890625
907,-12,-13.6518659591675,1.03159713745117,-12.7606382978723,-16.6108818054199,33125.91796875
908,-12,-13.6118659973145,-0.448257625102997,-14.0506912442396,-16.606517791748,32287.36328125
909,-8.80952380952381,-13.603928565979,2.02990651130676,-12.6285714285714,-16.5573749542236,35986.50390625
910,-12.38671875,-13.6259574890137,-0.14051616191864,-16.06640625,-16.5444831848145,31372.78515625
911,-16.7371794871795,-13.6377830505371,1.06424689292908,-18,-16.5141887664795,40130.40625
912,-8.28275862068966,-13.6124076843262,1.88504111766815,-12.3103448275862,-16.4865989685059,29533.666015625
913,-10.865671641791,-13.578179359436,1.59525191783905,-18.4676616915423,-16.4630508422852,29646.044921875
914,-2,-13.458179473877,1.97860431671143,-12,-16.4259510040283,33351.078125
915,-16.9101796407186,-13.5083312988281,2.10536241531372,-13.3592814371258,-16.3990173339844,20062.505859375
916,-15.6590909090909,-13.5141019821167,0.58106517791748,-17.1931818181818,-16.4514026641846,35062.18359375
917,-14.0643776824034,-13.4975137710571,1.81783163547516,-10.5793991416309,-16.3752670288086,37155.703125
918,0,-13.4020156860352,1.92034459114075,-8,-16.3044872283936,33406.921875
919,-12,-13.4099893569946,0.386250853538513,-16.97,-16.3167057037354,35165.65234375
920,-17.1216931216931,-13.4308004379272,0.0962971448898315,-18.5608465608466,-16.309778213501,37845.55078125
921,-11.7641791044776,-13.4210777282715,1.89500308036804,-20.7014925373134,-16.3539791107178,36341.8671875
922,-14.1644444444444,-13.4426803588867,1.81621837615967,-15.1066666666667,-16.3999118804932,40200.78125
923,-14,-13.4592170715332,0.486287951469421,-16,-16.3901882171631,35247.62890625
924,-8,-13.3881931304932,1.92148005962372,-20,-16.3858337402344,44174.8125
925,-16.8319672131148,-13.4604072570801,2.07569289207458,-13.422131147541,-16.34130859375,39060.5234375
926,-20,-13.4921226501465,0.344172596931458,-12.1433691756272,-16.288932800293,29145.927734375
927,-14,-13.5286912918091,1.98598432540894,-21.1162790697674,-16.3216934204102,29110.10546875
928,-6,-13.4822406768799,2.05025720596313,-16,-16.3077869415283,44517.4765625
929,-15.6912751677852,-13.5201816558838,2.13287925720215,-17.1241610738255,-16.341947555542,38597.33203125
930,-16.7379912663755,-13.5117683410645,2.15191411972046,-15.3493449781659,-16.3794918060303,25945.541015625
931,-12.1006711409396,-13.5284461975098,1.93949925899506,-13.4496644295302,-16.388635635376,31990.396484375
932,-6.91428571428571,-13.5122604370117,1.72621417045593,-14,-16.3580799102783,44833.15234375
933,-14.3529411764706,-13.5301141738892,1.70678532123566,-18.6666666666667,-16.3591918945312,39477.80859375
934,-13.3119658119658,-13.5655269622803,1.65000402927399,-14.0042735042735,-16.3058853149414,46122.265625
935,-16.3591160220994,-13.5685386657715,1.75580239295959,-14.3093922651934,-16.3017749786377,41634.28125
936,-11.0542005420054,-13.5781440734863,0.619296610355377,-19.0948509485095,-16.313512802124,30107.986328125
937,-12.6422018348624,-13.5557584762573,1.37436294555664,-22,-16.313512802124,30664.763671875
938,-16.9414893617021,-13.5735740661621,1.24623727798462,-18,-16.3102397918701,31579.74609375
939,-22.5202702702703,-13.6037092208862,-0.928838014602661,-22,-16.3694515228271,37597.72265625
940,-12,-13.5770425796509,-0.93447333574295,-14,-16.3027839660645,45296.70703125
941,-14.4313725490196,-13.5784034729004,1.7602311372757,-14.078431372549,-16.2766399383545,45423.21484375
942,-10.3136531365314,-13.5938282012939,1.33705079555511,-20.9261992619926,-16.3094825744629,47398.25390625
943,-20.4444444444444,-13.6494760513306,-0.344749569892883,-18.8449612403101,-16.3305339813232,44946.09765625
944,-6,-13.6219186782837,1.51225984096527,-20,-16.3391971588135,39357.40234375
945,-17.3491271820449,-13.6348876953125,1.86590766906738,-13.9201995012469,-16.3063106536865,49772.10546875
946,-13.7472924187726,-13.5932035446167,2.00847768783569,-17.2166064981949,-16.3063716888428,43461.2109375
947,-14,-13.6125402450562,0.238223314285278,-18,-16.3317775726318,39586.64453125
948,-9.176,-13.552188873291,1.72282516956329,-14.848,-16.3045043945312,38722.80859375
949,-11.9453551912568,-13.4807386398315,1.77601194381714,-17.3825136612022,-16.3295993804932,45074.59375
950,-13.1484375,-13.4516801834106,1.93178820610046,-16.765625,-16.3273124694824,38478.3984375
951,-15.5137157107232,-13.5017719268799,-0.039984405040741,-20.4638403990025,-16.3437385559082,36657.05859375
952,0,-13.4751052856445,2.11918020248413,-16,-16.3304061889648,50569.96484375
953,-13.1222222222222,-13.433201789856,2.03587698936462,-18.6666666666667,-16.3282165527344,48302.875
954,-14.2236842105263,-13.4346933364868,-0.178317219018936,-14.75,-16.335973739624,36791.62890625
955,-6,-13.3740930557251,1.8602921962738,-16,-16.3269424438477,44843.7734375
956,-18,-13.3899822235107,2.01684856414795,-9.38144329896907,-16.2862701416016,50804.05078125
957,-18,-13.3845157623291,2.07007336616516,-14.7283950617284,-16.251127243042,40145.171875
958,-12.5644171779141,-13.4016122817993,2.09639978408813,-13.5398773006135,-16.2613906860352,33079.30859375
959,-14,-13.3863430023193,2.14127445220947,-16,-16.2296504974365,39448.40234375
960,-10,-13.3463430404663,2.21392560005188,-20,-16.277811050415,47635.41796875
961,-16,-13.3145389556885,-0.821368217468262,-18.2959641255605,-16.2842178344727,37206.09765625
962,-14.2556818181818,-13.3110485076904,2.093510389328,-14.8068181818182,-16.2996940612793,34850.8125
963,0,-13.2243814468384,1.78387272357941,-20,-16.3284873962402,44979.51953125
964,-10.0361990950226,-13.2342519760132,1.86532199382782,-18.0361990950226,-16.3264408111572,44561.82421875
965,-4.16,-13.1716871261597,2.16853642463684,-17.508,-16.3414688110352,43906.65234375
966,-12.2731707317073,-13.1442165374756,2.24023652076721,-12.9024390243902,-16.3326416015625,54016.984375
967,-10,-13.1551151275635,2.1833221912384,-14,-16.2989196777344,45736.55078125
968,-10,-13.0958480834961,2.16070961952209,-18,-16.3225440979004,52526.16015625
969,-1.54258675078864,-13.012752532959,2.24179673194885,-11.2902208201893,-16.3730697631836,46259.62109375
970,-12,-13.0260858535767,2.07584595680237,-18.8666666666667,-16.4055137634277,47294.98828125
971,-18,-13.0349283218384,1.80635154247284,-8.12133891213389,-16.3805274963379,48739.328125
972,-14.1981132075472,-13.0606184005737,1.67491376399994,-20,-16.3978157043457,52748.2890625
973,-9.14079422382672,-13.0548906326294,1.79803442955017,-22,-16.4244823455811,49056.73828125
974,-16,-13.0222673416138,1.98759627342224,-16.7197452229299,-16.4308414459229,53840.94921875
975,-17.6950549450549,-13.094630241394,0.170620620250702,-4.24450549450549,-16.3482189178467,50954.93359375
976,-14.5798319327731,-13.0793914794922,2.06007051467896,-20.1386554621849,-16.3886432647705,41314.08984375
977,-7.30735930735931,-13.0614404678345,2.05755209922791,-19.5844155844156,-16.4073657989502,38733.375
978,-10,-13.0881071090698,2.02572965621948,-20,-16.4607028961182,39354.39453125
979,-5.64678899082569,-13.0311088562012,2.07326197624207,-20,-16.4873676300049,43257.3203125
980,-16.2222222222222,-13.0905904769897,2.08661580085754,-22.4747474747475,-16.5269432067871,46910.5546875
981,-11.4334203655352,-13.0931177139282,2.05136752128601,-15.9921671018277,-16.5118198394775,49088.62890625
982,-14,-13.0572147369385,1.41591465473175,-15.3015075376884,-16.4990692138672,50086.984375
983,-6,-13.0305480957031,2.11676526069641,-20,-16.5257358551025,42894.33203125
984,-12,-13.0416860580444,2.15889120101929,-22,-16.532320022583,52195.73828125
985,-5.89473684210526,-12.9876518249512,2.10723400115967,-22,-16.5367813110352,51135.66796875
986,-8.50953678474114,-12.9649658203125,2.06729578971863,-20,-16.582202911377,53585.203125
987,-13.5090909090909,-12.9158201217651,2.01230692863464,-18.2654545454545,-16.5573043823242,53197.96484375
988,-20,-12.9103326797485,0.486227631568909,-17.1471321695761,-16.5447196960449,53158.35546875
989,-14.0934579439252,-12.8968200683594,-0.665379405021667,-16.2523364485981,-16.5307598114014,51189.66015625
990,-12.0714285714286,-12.838134765625,-0.296116441488266,-17.4285714285714,-16.5518379211426,50548.48828125
991,-14.4205128205128,-12.8224353790283,1.86813008785248,-16.4769230769231,-16.5498485565186,47075.14453125
992,-8,-12.7762756347656,1.36125349998474,-22,-16.5755271911621,55961.2265625
993,-10.359649122807,-12.7786731719971,1.09676766395569,-8,-16.5221939086914,47559.87109375
994,-14.1098265895954,-12.7473030090332,1.96314120292664,-18,-16.5432777404785,48650.14453125
995,-6.42643391521197,-12.6968116760254,1.87354671955109,-17.788029925187,-16.555196762085,55376.8125
996,-4,-12.6384420394897,2.06810092926025,-20,-16.5664978027344,50819.46484375
997,-11.5459183673469,-12.6336727142334,0.400121450424194,-15.0918367346939,-16.5187015533447,50062.8203125
998,1.48309178743961,-12.5066223144531,1.99291825294495,-22,-16.5410385131836,51986.82421875
999,-18.3215189873418,-12.5677633285522,2.24252367019653,-21.5569620253165,-16.5842247009277,52382.43359375
1000,-10,-12.5733661651611,2.13017654418945,-10,-16.5360050201416,50512.64453125
1001,-18.5543766578249,-12.6437292098999,-0.734805762767792,-20,-16.5226726531982,47935.99609375
1002,-6.95336787564767,-12.5932750701904,2.05815362930298,-10.9430051813472,-16.5022926330566,52763.1875
1003,-13.3464052287582,-12.5890417098999,1.80869626998901,-17.0457516339869,-16.5081195831299,48123.91796875
1004,2,-12.5490417480469,2.1524076461792,-20,-16.5347862243652,55813.79296875
1005,-10,-12.5643253326416,2.22371339797974,-10,-16.4614543914795,52420.61328125
1006,-10.1538461538462,-12.5120182037354,-0.139645636081696,-15.9423076923077,-16.427173614502,49925.8828125
1007,-18,-12.5359859466553,2.39836311340332,-11.5789473684211,-16.3986530303955,51485.8203125
1008,-19.047619047619,-12.5429706573486,-0.0400619208812714,-20.7571428571429,-16.4135437011719,51152.4609375
1009,-14.1475409836066,-12.5685510635376,2.20709824562073,-17.327868852459,-16.4437160491943,53182.8203125
1010,-6.13636363636364,-12.5263090133667,-0.364436328411102,-13.0519480519481,-16.4320220947266,52719.02734375
1011,-11.2744360902256,-12.4681377410889,2.45491909980774,-9.12406015037594,-16.4009647369385,53186.79296875
1012,-13.2857142857143,-12.4357862472534,2.17330074310303,-12.1680672268908,-16.3608551025391,56358.375
1013,-14.1287878787879,-12.4366455078125,2.1148579120636,-22,-16.4541873931885,48344.65234375
1014,-4,-12.346396446228,2.21006059646606,-20,-16.4620475769043,46651.64453125
1015,0,-12.2603044509888,2.27134490013123,-16,-16.4786338806152,47533.17578125
1016,-4,-12.2038555145264,2.3444607257843,-14,-16.4519672393799,48214.53515625
1017,-11.2874015748031,-12.1191053390503,2.26156282424927,-16,-16.4791984558105,53807.89453125
1018,-8,-12.132438659668,-0.115684270858765,-12.3240418118467,-16.4546928405762,49663.01953125
1019,-12,-12.1130857467651,0.132416382431984,-16.2658227848101,-16.4431324005127,48930.7734375
1020,-8,-12.0997524261475,2.28215026855469,-22,-16.4802436828613,52308.60546875
1021,-14.5917721518987,-12.1044960021973,0.29052472114563,-15.1487341772152,-16.5251483917236,50569.484375
1022,-11.3873015873016,-12.1082677841187,1.8821314573288,-19.0634920634921,-16.5850944519043,49014.46875
1023,-20.3957446808511,-12.1276845932007,1.64140748977661,-13.4425531914894,-16.5526733398438,55691.8359375
1024,-18.6244725738397,-12.1388664245605,1.48196470737457,-22.7932489451477,-16.5516471862793,50150.95703125
1025,-16,-12.1451454162598,1.39513993263245,-20,-16.5804061889648,57552.34765625
1026,-2,-12.051812171936,1.68981957435608,-6,-16.4870738983154,54467.1875
1027,-16.8447488584475,-12.0381231307983,0.796165227890015,-18.7945205479452,-16.5077724456787,54541.26953125
1028,-8,-12.009877204895,2.05320596694946,-6,-16.4338054656982,53417.78515625
1029,-17.3030303030303,-12.0185642242432,2.11782479286194,-14.9343434343434,-16.4800357818604,57514.7265625
1030,-14.3863636363636,-12.0284452438354,1.26417946815491,-20.2348484848485,-16.503547668457,57257.1875
1031,-14.4516129032258,-12.0181217193604,2.02114605903625,-12.8248847926267,-16.4420547485352,55901.42578125
1032,-15.1123595505618,-12.0373344421387,0.731348991394043,-18.438202247191,-16.444974899292,50830.3671875
1033,-12,-12.064001083374,2.01647710800171,-22,-16.4849758148193,51398.359375
1034,-6,-12.0472755432129,2.30139684677124,-10,-16.4467315673828,52601.296875
1035,-16.4750656167979,-12.0695037841797,2.24549007415771,-10.9448818897638,-16.4371166229248,53996.5546875
1036,-16.7921146953405,-12.1529426574707,-0.0408820509910583,-16.3620071684588,-16.4128608703613,53087.83203125
1037,-10.6543209876543,-12.1786127090454,0.521309852600098,-14,-16.3595275878906,56200.30078125
1038,-16.2119402985075,-12.2333583831787,2.05873036384583,-17.3522388059701,-16.3952102661133,52876.75
1039,-9.28448275862069,-12.2152547836304,2.12559652328491,-14.3965517241379,-16.3809261322021,56719.25390625
1040,-20.706043956044,-12.2539863586426,-0.611350774765015,-11.2115384615385,-16.2956695556641,56632.84765625
1041,-22,-12.3244352340698,-0.483741939067841,-18.1807692307692,-16.283540725708,55822.86328125
1042,-8.8134328358209,-12.2498588562012,2.03478169441223,-20.6641791044776,-16.3396606445312,52311.46484375
1043,-5.2,-12.1395435333252,1.38151025772095,-10.0574712643678,-16.3001327514648,58329.73046875
1044,-7.65137614678899,-12.0992774963379,1.10633623600006,-20.2048929663609,-16.3119735717773,57169.76171875
1045,-8.67637540453074,-12.0412092208862,1.84579586982727,-20.8673139158576,-16.3584308624268,55736.203125
1046,-10,-12.0678758621216,2.06029224395752,-20,-16.3850975036621,58032.3515625
1047,-4.45652173913043,-11.9727420806885,2.24836993217468,-16.8695652173913,-16.3463516235352,54631.4609375
1048,-10.5900900900901,-11.9599742889404,2.07733750343323,-19.1801801801802,-16.390115737915,54868.9921875
1049,-2,-11.9333076477051,2.19505000114441,-20,-16.4034481048584,61237.28515625
1050,-13.2162162162162,-11.9208478927612,2.18901085853577,-20.963963963964,-16.3923168182373,59024.69140625
1051,-18.8111111111111,-11.9237699508667,0.314054727554321,-16.9703703703704,-16.3901443481445,58398.19921875
1052,-12,-11.9041080474854,0.40894079208374,-12,-16.3634777069092,60605.72265625
1053,-9.83193277310924,-11.8363199234009,2.33821725845337,-12.5042016806723,-16.37060546875,58646.50390625
1054,-18,-11.8720569610596,2.13328385353088,-19.3189066059225,-16.3729877471924,60742.83984375
1055,-12.2820512820513,-11.8425025939941,0.491119414567947,-10.4358974358974,-16.3381843566895,60842.36328125
1056,-20.272030651341,-11.8654174804688,1.91826832294464,-21.3831417624521,-16.4087371826172,55203.5703125
1057,-8.72972972972973,-11.8436155319214,1.99250113964081,-18.2387387387387,-16.4452571868896,62983.1171875
1058,-10.468253968254,-11.8334045410156,1.97011017799377,-20,-16.4849185943604,59503.79296875
1059,-9.06528189910979,-11.835108757019,2.14595723152161,-19.7685459940653,-16.5325202941895,61923.1328125
1060,-13.5598705501618,-11.8429298400879,2.10823225975037,-17,-16.5387439727783,61396.11328125
1061,-14.862700228833,-11.8304328918457,-0.306803554296494,-20.3157894736842,-16.5541820526123,60674.703125
1062,-16.1736694677871,-11.883038520813,-0.792837560176849,-16,-16.5787792205811,61880.72265625
1063,-12,-11.8906011581421,0.489072501659393,-19.645390070922,-16.5866317749023,57439.89453125
1064,-18,-11.9972677230835,2.01025462150574,-18.878640776699,-16.6324901580811,57764.74609375
1065,-10,-11.9512004852295,-0.734026730060577,-15.1260504201681,-16.6442680358887,58287.0078125
1066,-9.4638783269962,-11.9098987579346,2.02932858467102,-17.8479087452471,-16.6486320495605,60357.80859375
1067,-14,-11.9094696044922,2.02708911895752,-14,-16.6714363098145,57255.515625
1068,-10.9959677419355,-11.9827756881714,2.42782592773438,-18.6451612903226,-16.7424049377441,57530.58984375
1069,-13.3969072164948,-11.9920892715454,2.24623918533325,-14.1907216494845,-16.723876953125,59742.828125
1070,-10.8895027624309,-11.9505414962769,0.82289719581604,-17.1104972375691,-16.714204788208,60349.6640625
1071,-13.3174603174603,-11.9608955383301,2.11062932014465,-16,-16.682861328125,58694.734375
1072,-5.77049180327869,-11.9049367904663,2.20713043212891,-22.4959016393443,-16.7321262359619,59880.9140625
1073,-8.3905325443787,-11.8675394058228,0.0875826776027679,-18.5621301775148,-16.7492065429688,64339.375
1074,-12.4838709677419,-11.8974323272705,1.63048124313354,-20.5967741935484,-16.7531833648682,58768.515625
1075,-14.0334572490706,-11.8787755966187,2.0483021736145,-11.5204460966543,-16.7405071258545,60270.72265625
1076,-10,-11.8121089935303,2.19533705711365,-15.0697674418605,-16.7600154876709,62873.26171875
1077,-6.16049382716049,-11.7598457336426,2.30308246612549,-16.9382716049383,-16.7321605682373,59565.84375
1078,-20.7483870967742,-11.8581686019897,2.025954246521,-15.2774193548387,-16.7273445129395,63900.984375
1079,-15.0604229607251,-11.8539628982544,1.60822343826294,-19.0604229607251,-16.7402534484863,63343.9609375
1080,-15.8114754098361,-11.8477869033813,-0.394594669342041,-22,-16.7845935821533,63343.76171875
1081,-4,-11.7937812805176,2.25398278236389,-18,-16.8149280548096,61372.62890625
1082,-16.3389261744966,-11.8566122055054,2.2128598690033,-17.744966442953,-16.8398933410645,61439.19921875
1083,-8.76119402985075,-11.8193330764771,2.07886576652527,-16,-16.822114944458,66683.03125
1084,-16.1481481481481,-11.8382415771484,1.88373422622681,-16.8518518518519,-16.8410987854004,63569.25
1085,-10,-11.7958469390869,1.98346102237701,-20,-16.879035949707,64447.8828125
1086,2,-11.7088193893433,2.32130718231201,-16,-16.8584041595459,67132.9609375
1087,-20.6775700934579,-11.7623882293701,2.39680147171021,-20.4158878504673,-16.8478450775146,61580.4296875
1088,-14,-11.7427787780762,2.21963500976562,-13.6315789473684,-16.8187198638916,62811.98046875
1089,-16.3805309734513,-11.701847076416,2.47051334381104,-16.0619469026549,-16.7791347503662,62692.359375
1090,-7.18021201413428,-11.6697149276733,1.95465624332428,-16.4558303886926,-16.7955074310303,63062.97265625
1091,-20.8032786885246,-11.712194442749,2.02415561676025,-18.9617486338798,-16.8280639648438,62770.921875
1092,-2,-11.6567707061768,2.20556783676147,-20,-16.8218879699707,62962.49609375
1093,-10,-11.587140083313,2.31503534317017,-12,-16.776252746582,64167.5546875
1094,-16.1374570446735,-11.6547231674194,2.27268886566162,-6.4192439862543,-16.6857166290283,64338.85546875
1095,-14.7150997150997,-11.6371650695801,-0.192087650299072,-19.1709401709402,-16.7207202911377,66923.296875
1096,-10,-11.6121826171875,2.01084208488464,-18,-16.725944519043,62926.2109375
1097,-8.42446043165468,-11.5750112533569,2.13061094284058,-12.7194244604317,-16.6907386779785,64117.4453125
1098,-16,-11.6205053329468,2.27078437805176,-24,-16.7517528533936,64204.6953125
1099,-12.13125,-11.6217441558838,2.32294034957886,-19.6875,-16.7671184539795,67076.0625
1100,-10.8019801980198,-11.6061010360718,0.126049607992172,-17.3069306930693,-16.7707271575928,67496.5703125
1101,-12,-11.5826768875122,2.30215740203857,-22,-16.7809677124023,66141.109375
1102,-16,-11.6893434524536,2.38578081130981,-8,-16.7276344299316,66315.7890625
1103,-11.080118694362,-11.6757297515869,2.31227350234985,-19.0089020771513,-16.7299175262451,66614.328125
1104,-18,-11.7009038925171,2.14161276817322,-18,-16.7515830993652,64005.0625
1105,-8.84126984126984,-11.7198457717896,2.04092288017273,-14.1587301587302,-16.7393074035645,68497.375
1106,-12,-11.6798458099365,2.0441677570343,-20.2958579881657,-16.8120708465576,68256.9296875
1107,-7.55084745762712,-11.6101856231689,2.11155080795288,-18.9576271186441,-16.8402671813965,68032.140625
1108,-15.7208588957055,-11.6312284469604,2.21968054771423,-15.4754601226994,-16.8531703948975,67675.8203125
1109,-12.9669211195929,-11.6243410110474,2.27092528343201,-9.1882951653944,-16.8077564239502,68428.8046875
1110,0,-11.557674407959,2.32549238204956,-20,-16.8077564239502,69567.3359375
1111,-12.8582677165354,-11.5367288589478,2.16623592376709,-12.7637795275591,-16.7708797454834,64534.05859375
1112,-4,-11.4683589935303,2.29705381393433,-8,-16.7254981994629,66575.5703125
1113,-12.3649635036496,-11.5507917404175,2.25328516960144,-19,-16.7188320159912,67971.78125
1114,-20.4669603524229,-11.6203308105469,-0.594047725200653,-17.2643171806167,-16.7136859893799,67141.609375
1115,-6,-11.6325960159302,2.22570753097534,-22,-16.7436332702637,69279.421875
1116,-6,-11.5907745361328,2.30290007591248,-16,-16.7642841339111,68985.796875
1117,-8,-11.5774412155151,2.42070174217224,-16,-16.7776165008545,70155.109375
1118,-10,-11.5774412155151,2.48445081710815,-22,-16.8042831420898,69760.5390625
1119,2,-11.5538244247437,2.5054874420166,-18,-16.8490161895752,70614.6875
1120,-18,-11.593825340271,2.50650429725647,-16.3650793650794,-16.8323364257812,66596.1953125
1121,-11.1081081081081,-11.5478792190552,0.645142316818237,-19.1081081081081,-16.9055824279785,68674.28125
1122,-16,-11.5598907470703,1.73205530643463,-16,-16.8789157867432,69728.296875
1123,-0.140625,-11.4998893737793,2.36901926994324,-12.953125,-16.818603515625,68351.078125
1124,-4.83870967741935,-11.4254817962646,2.13206386566162,-14,-16.8004722595215,69161.4375
1125,-14.858064516129,-11.4065675735474,0.531391382217407,-13.7612903225806,-16.8639183044434,68547.8671875
1126,-13.9151670951157,-11.4021368026733,1.99007499217987,-20.6580976863753,-16.8673820495605,69301.65625
1127,-10.3521126760563,-11.4224348068237,1.87848126888275,-12.5399061032864,-16.8204174041748,67496.203125
1128,-2,-11.369101524353,2.0990879535675,-14,-16.7804183959961,70499.78125
1129,-10.5094339622642,-11.4015197753906,-0.182544738054276,-18,-16.7670841217041,74089.875
1130,-14.3585657370518,-11.3890953063965,2.24366545677185,-17.8326693227092,-16.7361373901367,70463.2890625
1131,-10.803738317757,-11.3848972320557,1.92222917079926,-20.4299065420561,-16.7657222747803,72059.3671875
1132,-7.49171270718232,-11.3415088653564,2.06080317497253,-9.87292817679558,-16.7295303344727,72463.2890625
1133,-8.11864406779661,-11.3556327819824,0.966246604919434,-20.0169491525424,-16.7296447753906,71335.2109375
1134,-18,-11.3956327438354,1.94982194900513,-17.4390243902439,-16.6992378234863,74278.3203125
1135,-12.9899497487437,-11.4429349899292,2.13295888900757,-18.7889447236181,-16.6778297424316,73307.3203125
1136,-7.45454545454545,-11.4358997344971,2.24411082267761,-13.8701298701299,-16.6369647979736,73693.9765625
1137,-14.08984375,-11.439772605896,1.7886905670166,-22.40234375,-16.6645450592041,72812.1171875
1138,-13.1843137254902,-11.3943338394165,1.85482037067413,-18.6078431372549,-16.6742820739746,74580.328125
1139,-14.9385964912281,-11.3999691009521,-0.176328033208847,-19.0877192982456,-16.6931858062744,74713.34375
1140,-6.45538461538462,-11.3625297546387,2.08799195289612,-16.9815384615385,-16.6902046203613,74806.375
1141,-10.7311827956989,-11.3379325866699,2.12958955764771,-18,-16.7003574371338,73555.921875
1142,-19.4761904761905,-11.4144420623779,2.09889650344849,-17.0680272108844,-16.66748046875,74416.421875
1143,-13.4102564102564,-11.434778213501,0.270029902458191,-11.8228438228438,-16.692964553833,71131.4765625
1144,-11.530612244898,-11.4175844192505,2.05071806907654,-12.9183673469388,-16.659086227417,73927.609375
1145,-10,-11.4414081573486,2.08979821205139,-4,-16.5671672821045,73767.265625
1146,-4.80616740088106,-11.4467830657959,2.28586483001709,-6.62995594713656,-16.4780330657959,74825.1171875
1147,-16,-11.4764766693115,2.38509607315063,-12.0055248618785,-16.4574584960938,72730.390625
1148,-4,-11.5130310058594,2.44008183479309,-18,-16.4307918548584,75566.25
1149,-14,-11.4842205047607,2.39451336860657,-18.4315789473684,-16.4099540710449,73403.15625
1150,-6.90566037735849,-11.4635915756226,2.1460542678833,-19.3301886792453,-16.4721546173096,75754.3515625
1151,-18.7518248175182,-11.4649076461792,2.03835701942444,-12.3211678832117,-16.4209632873535,75626.0859375
1152,-16.6981132075472,-11.5298719406128,2.03514790534973,-17.9308176100629,-16.4675483703613,75023.9140625
1153,-8,-11.4942293167114,2.04334831237793,-4,-16.380578994751,78265.3984375
1154,-12.0526315789474,-11.5879135131836,2.21920609474182,-19.5438596491228,-16.3775367736816,75214.6171875
1155,-13.2378378378378,-11.6094999313354,2.27272629737854,-19,-16.4375381469727,75209.0703125
1156,-16.9330543933054,-11.6546936035156,2.29614281654358,-16.0167364016736,-16.4380321502686,73372.421875
1157,-7.16129032258065,-11.5824356079102,2.33586573600769,-20.1774193548387,-16.4953556060791,74377.2109375
1158,-9.63265306122449,-11.5196695327759,1.33392691612244,-16.4897959183673,-16.4669075012207,74990.765625
1159,-16.7074829931973,-11.536735534668,2.37065696716309,-24,-16.5113887786865,77218.7734375
1160,-12,-11.5758266448975,1.40469908714294,-18,-16.5443744659424,78146.2265625
1161,-6,-11.5406637191772,2.17984461784363,-20,-16.6168823242188,76208.40625
1162,-8,-11.5054264068604,2.61590051651001,-20,-16.669095993042,73263.59375
1163,-10.0652173913043,-11.4783353805542,2.39525461196899,-18,-16.642427444458,75345.8203125
1164,-12,-11.5316686630249,1.38922381401062,-17.1844660194175,-16.6236572265625,74920.5546875
1165,-13.5495867768595,-11.6219987869263,2.0100429058075,-21.0661157024793,-16.6574325561523,79356.2734375
1166,-12.1083591331269,-11.6760549545288,2.41325664520264,-14.7863777089783,-16.6626739501953,78427.953125
1167,-10.5690376569038,-11.6712656021118,-0.00679361820220947,-11.2635983263598,-16.6310977935791,77288.0234375
1168,-9.57679180887372,-11.6817770004272,2.4424147605896,-20.8156996587031,-16.6877098083496,78916.4921875
1169,-17.5261044176707,-11.7186183929443,0.347404330968857,-21.7228915662651,-16.7240905761719,78226.171875
1170,-13.199203187251,-11.7532796859741,2.25336146354675,-22,-16.7240905761719,80101.8203125
1171,-12,-11.7360010147095,2.19586372375488,-22,-16.7697658538818,80309.640625
1172,-6,-11.7000865936279,2.14089584350586,-22,-16.789342880249,78280.25
1173,-11.0994764397906,-11.638111114502,2.28540968894958,-21.17277486911,-16.840877532959,79677.6796875
1174,-10,-11.5806150436401,2.43049287796021,-24,-16.8489227294922,80826.2734375
1175,-17.1812688821752,-11.5884895324707,0.379009485244751,-22.4320241691843,-16.8651332855225,80134.296875
1176,-15.7701612903226,-11.6802911758423,1.95968842506409,-20,-16.9584674835205,80507.09375
1177,-11.6466876971609,-11.6456365585327,2.24577784538269,-11.1892744479495,-16.9077663421631,76521.8359375
1178,-2,-11.6056365966797,2.25091075897217,-22,-17.0144329071045,83580.09375
1179,-8.27208480565371,-11.545431137085,2.41896367073059,-20.2720848056537,-17.0500202178955,80574.15625
1180,-14,-11.5428552627563,2.30801320075989,-18,-17.035120010376,80923.6640625
1181,-16.9227941176471,-11.5593290328979,-0.822732865810394,-20.4816176470588,-17.0861644744873,81404.5234375
1182,-16,-11.5652475357056,2.13022255897522,-22,-17.1099109649658,77517.6875
1183,-17.2479338842975,-11.6002340316772,2.26258683204651,-19.4297520661157,-17.0927753448486,77901.0390625
1184,-6.39130434782609,-11.6028413772583,2.38185620307922,-10.9130434782609,-17.0988616943359,78206.2890625
1185,-4,-11.5196752548218,2.40429139137268,-24,-17.1858959197998,79358.8828125
1186,-10.0698924731183,-11.4748601913452,2.43077993392944,-22,-17.223482131958,82141.4140625
1187,-12.5035460992908,-11.4871892929077,2.38476872444153,-15.241134751773,-17.2317562103271,82326.5234375
1188,-18.2777777777778,-11.5009603500366,0.0761613845825195,-22.6481481481481,-17.2670612335205,82592.09375
1189,0,-11.4390640258789,2.33220219612122,-16,-17.2777519226074,82625.3984375
1190,-14,-11.3943567276001,1.87431144714355,-18.3654390934844,-17.3254451751709,84743.265625
1191,-12,-11.3276901245117,2.19055533409119,-18,-17.324239730835,82203.359375
1192,-14.8609271523179,-11.3680057525635,2.38847613334656,-15.1986754966887,-17.2878036499023,85986.6484375
1193,-9.54255319148936,-11.3969564437866,1.47042989730835,-16.6312056737589,-17.3316268920898,84226.96875
1194,-14.621359223301,-11.4434232711792,2.18977308273315,-12.4174757281553,-17.2797107696533,84661.7890625
1195,-9.55789473684211,-11.4493007659912,2.26447868347168,-10.1719298245614,-17.2084083557129,84453.46875
1196,-12.631067961165,-11.4668407440186,2.14908814430237,-10.1423948220065,-17.142692565918,85857.3984375
1197,-18,-11.5571308135986,0.10058331489563,-22,-17.1768951416016,86042.2890625
1198,-15.7111111111111,-11.5912704467773,1.77741062641144,-22.8111111111111,-17.201099395752,82018.4609375
1199,-8.28571428571429,-11.6331758499146,0.133222639560699,-14.7357142857143,-17.1660060882568,85466.3046875
1200,-14.4425531914894,-11.6413516998291,1.68040645122528,-19.2553191489362,-17.154613494873,83400.75
1201,-16.3179723502304,-11.6247310638428,1.7117623090744,-12,-17.1214771270752,80979.7578125
1202,-14,-11.6380643844604,1.68671309947968,-5.712,-17.0795593261719,86587.5390625
1203,-12,-11.6525173187256,1.68285739421844,-14,-17.0895309448242,86244.0546875
1204,-16.678431372549,-11.6437072753906,1.97877442836761,-18,-17.080738067627,86790.515625
1205,-14,-11.6551599502563,2.25085115432739,-14.7247706422018,-17.1093292236328,87339.546875
1206,-8.29842931937173,-11.5753364562988,2.29726147651672,-4.92670157068063,-16.9996185302734,83116.4765625
1207,-16.0618181818182,-11.6242160797119,2.17221784591675,-16.6509090909091,-16.98903465271,83926.71875
1208,-4,-11.5810947418213,2.25677704811096,-8,-16.9090347290039,84690.0078125
