EpisodeIndex,DQNEpisodeReward,DQNAverageReward,DQNEpisodeQ0,DDQNEpisodeReward,DDQNAverageReward,DDQNEpisodeQ0
1,-12.7488929862092,-12.7488927841187,0.99724292755127,-14.2062729344094,-14.2062730789185,0.99724292755127
2,-16.5523688268372,-14.6506309509277,0.99779886007309,-18.7892766201279,-16.4977741241455,0.9977987408638
3,-14.132751426288,-14.4780044555664,0.998293817043304,-16.5436225642697,-16.5130558013916,0.998294651508331
4,-9.00758706670477,-13.1104001998901,0.997815489768982,-20.9955464992965,-17.6336784362793,0.997817397117615
5,-17.1991143889674,-13.9281435012817,0.998382925987244,-13.8847647978752,-16.8838958740234,0.998384475708008
6,-6.1749085670098,-12.6359357833862,0.998495936393738,-15.4564314621381,-16.6459865570068,0.998499989509583
7,-19.4485035720332,-13.6091594696045,0.998299777507782,-13.7728599415876,-16.235538482666,0.998303174972534
8,-11.8851933714902,-13.3936634063721,0.998357117176056,-16.7930670087142,-16.3052291870117,0.998361051082611
9,-1.43371687305288,-12.0647821426392,0.99856573343277,-11.4984011615116,-15.7711381912231,0.998570442199707
10,-16.0091267659504,-12.4592161178589,0.993959426879883,-7.17211086256217,-14.9112367630005,0.993996500968933
11,-4.80947470659996,-11.7637844085693,0.998406112194061,-8.35103248192203,-14.3148527145386,0.998415112495422
12,-4.72818655359783,-11.1774854660034,0.998194515705109,-8.08414233699809,-13.7956275939941,0.998201847076416
13,-15.0491143889674,-11.475302696228,0.920112729072571,-17.0064786488684,-14.0426158905029,0.920241236686707
14,-7.51424156390357,-11.1923704147339,0.998192369937897,-14.8558148630871,-14.1007013320923,0.998200058937073
15,-7.24136897032199,-10.9289703369141,0.997869729995728,-0.875034989583291,-13.2189912796021,0.997877478599548
16,-12.325439130228,-11.0162496566772,0.967502653598785,-12.4425551192662,-13.1704635620117,0.967632234096527
17,-1.4890635102012,-10.4558267593384,0.997276842594147,-1.49222511564733,-12.4835081100464,0.997288584709167
18,-5.17864149608851,-10.1626501083374,0.999876499176025,-4.74310078990035,-12.0534858703613,0.999876141548157
19,-9.94090744273262,-10.1509790420532,0.958378970623016,-13.8857711890103,-12.1499214172363,0.958734750747681
20,-8.56170016995057,-10.071515083313,0.998071014881134,-10.5091525720105,-12.0678834915161,0.998081088066101
21,-8.82943690195158,-10.0123682022095,0.998317360877991,-3.23256605432895,-11.6471538543701,0.998331725597382
22,-4.18138110587655,-9.74732303619385,0.998401820659637,-1.39844684373355,-11.1813039779663,0.998414158821106
23,-7.05047986700951,-9.6300687789917,0.998562872409821,-0.977790660085797,-10.7376718521118,0.998574614524841
24,-2.82506973625201,-9.34652805328369,0.998116493225098,-8.75977208105891,-10.6552591323853,0.998128354549408
25,-5.03485873368708,-9.1740608215332,0.998584747314453,-3.16280459169841,-10.3555612564087,0.998595893383026
26,3.32142729725581,-8.69346523284912,0.996615350246429,5.80088909802419,-9.73416042327881,0.996631681919098
27,-5.99560089093866,-8.59354400634766,0.993023157119751,-10.4974665312976,-9.76243114471436,0.993051767349243
28,-9.19705889458955,-8.61509799957275,0.991036534309387,2.50133660913867,-9.32443904876709,0.991083025932312
29,-6.2546877897988,-8.53370475769043,0.999770700931549,1.77038834360115,-8.94185829162598,0.999771535396576
30,0.0155373820792386,-8.24873065948486,0.998009979724884,-0.433306543122102,-8.65823936462402,0.998000204563141
31,-3.87017102822377,-8.10748672485352,0.998581290245056,1.02250811400416,-8.34595775604248,0.998587489128113
32,-8.9957732745155,-8.13524532318115,0.997536182403564,-1.48383139654732,-8.131516456604,0.997543096542358
33,0.205608130691619,-7.88249254226685,0.995395004749298,0.00525339757049087,-7.88494777679443,0.995410859584808
34,0.643509643559898,-7.63172721862793,0.998079419136047,-6.88823021063552,-7.85563278198242,0.99808794260025
35,-1.13445901843282,-7.44609117507935,0.993336200714111,-4.596556715089,-7.76251649856567,0.993364334106445
36,3.67395102735184,-7.1372013092041,0.987721621990204,5.486556661393,-7.39448642730713,0.987775564193726
37,-0.606804870373195,-6.96070384979248,0.945598006248474,2.05100740359258,-7.13920307159424,0.945930182933807
38,-4.49050933483581,-6.89569902420044,0.989815592765808,-4.4938345061312,-7.06958818435669,0.989829361438751
39,4.34302346402515,-6.6075267791748,0.998195707798004,-2.62984282334573,-6.95574808120728,0.998201489448547
40,-3.38722702816217,-6.52701854705811,0.997878432273865,-2.88567119313092,-6.85399627685547,0.997889339923859
41,-1.28857840530842,-6.39925241470337,0.997774183750153,2.74822832656705,-6.61979579925537,0.997782647609711
42,0.00710012408276151,-6.24672031402588,0.993605494499207,-1.47766871956798,-6.49736404418945,0.993627786636353
43,5.10398890351016,-5.98274993896484,0.995378136634827,6.81025293027141,-6.18788480758667,0.995408952236176
44,-6.32650790506879,-5.990562915802,0.998776257038116,9.19820093898239,-5.83820056915283,0.998783648014069
45,4.00130604595613,-5.76852130889893,0.997063815593719,13.0521640798498,-5.41841506958008,0.99707567691803
46,-6.77728474600441,-5.79045104980469,0.998526036739349,-1.47763795579701,-5.33274555206299,0.998533964157104
47,9.77588594670017,-5.45925235748291,0.997081220149994,3.42511521798396,-5.14640855789185,0.997097015380859
48,-4.05208179097657,-5.42993688583374,0.736554861068726,-1.41882611766176,-5.06875038146973,0.737661838531494
49,-2.15700010486389,-5.36314153671265,0.99812239408493,-4.61931667708042,-5.05957841873169,0.998131215572357
50,4.97682572755261,-5.15634298324585,0.998779833316803,-5.08678013658374,-5.06012201309204,0.998786747455597
51,1.28872517033965,-5.02996826171875,0.998227417469025,7.93698671462753,-4.80527687072754,0.998236536979675
52,-2.99051137009018,-4.99074840545654,0.997546136379242,6.03420003037484,-4.59682559967041,0.997557520866394
53,8.08179103642225,-4.74409627914429,0.966998994350433,7.98323112051999,-4.35946607589722,0.96686840057373
54,-1.61061006414246,-4.68606901168823,0.314051538705826,3.40530736310647,-4.21567392349243,0.315220206975937
55,3.01497397234767,-4.54605007171631,0.992138087749481,0.0105571765147296,-4.13883352279663,0.992170929908752
56,-5.77062741110809,-4.56791734695435,0.450320452451706,0.0593066105398802,-4.06386661529541,0.450228691101074
57,6.0158844937176,-4.38223648071289,0.995137631893158,10.724845269866,-3.80441546440125,0.995157539844513
58,-4.3028490421825,-4.38086795806885,0.968217670917511,0.574105305171938,-3.728924036026,0.968528687953949
59,-1.84547299510051,-4.33789491653442,0.994102776050568,4.37000208226881,-3.59165358543396,0.994161903858185
60,6.86449629731768,-4.15118885040283,0.99859756231308,7.07422475682877,-3.41388916969299,0.998606741428375
61,-0.737890749756189,-4.09523296356201,0.992246091365814,-0.811861241069362,-3.37123274803162,0.992288887500763
62,6.46502282585784,-3.92490601539612,0.996831595897675,0.711736875826747,-3.30537867546082,0.996858477592468
63,4.55920006286064,-3.79023814201355,0.997698366641998,-1.11710707927665,-3.27064418792725,0.997718334197998
64,0.963521770982585,-3.71596050262451,0.99583238363266,4.04216999303966,-3.15638136863708,0.995860159397125
65,6.63965078540396,-3.55664324760437,0.783286988735199,-1.39673737847875,-3.129310131073,0.7814000248909
66,6.91695389184791,-3.39795255661011,0.998218834400177,2.59202612977112,-3.0426230430603,0.998234391212463
67,-5.119547733587,-3.42364764213562,0.998312592506409,3.93841813731643,-2.93842816352844,0.998326480388641
68,7.26140297792064,-3.26651453971863,0.995622217655182,7.26513460758687,-2.78837585449219,0.995658993721008
69,6.56420293786111,-3.1240406036377,0.998618125915527,10.1490475880442,-2.60087704658508,0.998631656169891
70,7.64454171275868,-2.9702033996582,0.997294247150421,7.53502779776919,-2.45607829093933,0.997312843799591
71,8.819258694304,-2.80415487289429,0.997661113739014,2.05705706330096,-2.39251327514648,0.997681736946106
72,10.5158938480117,-2.61915421485901,0.995939135551453,8.37681601461535,-2.24293899536133,0.995972454547882
73,11.6933849906292,-2.42309188842773,0.516445100307465,9.33367781900176,-2.08435559272766,0.513481140136719
74,8.82475357853185,-2.27109408378601,0.996017515659332,7.24676099125947,-1.95825934410095,0.99605929851532
75,13.7336277691211,-2.05769777297974,0.522838056087494,10.0725802323069,-1.79784786701202,0.518204212188721
76,16.3026641319519,-1.81611394882202,0.971395254135132,12.2884275590389,-1.61250221729279,0.971048891544342
77,1.87414408665767,-1.7681884765625,0.994970142841339,2.81302156110962,-1.55502796173096,0.995017349720001
78,-3.07508582332215,-1.78494381904602,0.997044742107391,2.67161663335586,-1.50084018707275,0.997073888778687
79,3.79997864728467,-1.71424841880798,0.7702716588974,8.9873181165841,-1.36807870864868,0.771669387817383
80,6.04748175386683,-1.61722695827484,0.992245972156525,6.01901237109886,-1.27574002742767,0.992282330989838
81,4.51653229324421,-1.54150140285492,0.997015714645386,6.02580631127483,-1.18559741973877,0.997032403945923
82,4.95433841279488,-1.46228396892548,0.998528718948364,7.01627643060657,-1.08557462692261,0.998542547225952
83,10.4394860807627,-1.31888902187347,0.992781341075897,11.7073128678847,-0.931443572044373,0.992849707603455
84,5.65262874025577,-1.23589479923248,0.998251378536224,8.91569279353613,-0.81421571969986,0.99826717376709
85,6.38004034586214,-1.14629554748535,0.998330295085907,7.82105252706666,-0.712624311447144,0.998344540596008
86,12.1307564896648,-0.991911232471466,0.99823522567749,5.69615297886405,-0.638103663921356,0.998250067234039
87,3.24407836372549,-0.943221688270569,0.997951447963715,5.74795319662742,-0.564700663089752,0.997968018054962
88,8.26697141494037,-0.838560461997986,0.998237609863281,5.75903217240415,-0.492840081453323,0.998252213001251
89,11.2747670356897,-0.702455639839172,0.995213747024536,6.74601343649879,-0.411504685878754,0.995240330696106
90,8.49250417663138,-0.600289404392242,0.99207216501236,4.84586501605197,-0.353089451789856,0.992112994194031
91,7.5331908207074,-0.510910511016846,0.993691444396973,9.05468424392946,-0.24970731139183,0.993735015392303
92,9.33802953301086,-0.403856784105301,0.889996409416199,5.04979209503388,-0.192104056477547,0.890657067298889
93,8.99129695331865,-0.302833646535873,0.975726664066315,8.98873357804944,-0.0933853760361671,0.975842654705048
94,0.686284851487787,-0.292311072349548,0.976981997489929,7.06571134323781,-0.0172247681766748,0.977106630802155
95,8.04805219639358,-0.204517811536789,0.474566906690598,14.4077386030361,0.134616941213608,0.472677618265152
96,11.3118869517814,-0.0845552459359169,0.997508406639099,9.41735049529314,0.231312081217766,0.99752551317215
97,7.6154687213667,-0.00517355557531118,0.993963420391083,11.0203040480623,0.342538803815842,0.99398946762085
98,4.46818309357185,0.0404729396104813,0.998388767242432,4.98653621550202,0.3899265229702,0.99839836359024
99,5.66900689377677,0.0973268300294876,0.605036199092865,2.04499809192864,0.406644403934479,0.607265830039978
100,8.58593147939448,0.182212874293327,0.996183216571808,8.58593147939448,0.488437294960022,0.996212601661682
101,5.05491480075004,0.230457454919815,0.997585773468018,8.6788303463206,0.569530308246613,0.997600734233856
102,10.7772178789706,0.33385705947876,0.997334122657776,6.01985542928524,0.622964918613434,0.99734628200531
103,12.640814465581,0.453342080116272,0.98553591966629,9.08127868523752,0.705084443092346,0.985557973384857
104,7.75016487566406,0.523503839969635,0.898011863231659,8.99842058295251,0.784828066825867,0.898327469825745
105,9.12062014963281,0.60538113117218,0.997319042682648,9.06632586316407,0.863699495792389,0.997331023216248
106,11.7997851363254,0.710988700389862,0.997876524925232,6.26352580732197,0.914641261100769,0.997890532016754
107,10.7179698640341,0.804511904716492,0.3935506939888,4.31301873157527,0.94640177488327,0.394279390573502
108,5.76570504864862,0.850448906421661,0.997526705265045,7.8655879952661,1.0104683637619,0.997539162635803
109,6.66952156125451,0.903834939002991,0.997912228107452,10.1971335246294,1.09474968910217,0.997925281524658
110,8.05063315575277,0.96880578994751,0.996064841747284,6.50351474065608,1.14392018318176,0.996086359024048
111,10.5281162080708,1.05492568016052,0.991695702075958,9.22483463195542,1.21672129631042,0.991751849651337
112,7.76152443731332,1.11480605602264,0.998039782047272,6.5096981803426,1.2639799118042,0.998051524162292
113,7.26547502691147,1.16923666000366,0.997099637985229,10.986131997178,1.35001659393311,0.997113704681396
114,10.2894243048348,1.24923837184906,0.981949508190155,9.03064302770415,1.41739070415497,0.982053637504578
115,9.22361972893751,1.31858086585999,0.99738472700119,10.5900599623682,1.49715292453766,0.997396945953369
116,10.9414884226608,1.40153682231903,0.998364865779877,7.75496608354808,1.55109965801239,0.998372733592987
117,9.11634918050154,1.46747529506683,0.992757439613342,8.62232100187711,1.61153745651245,0.992669224739075
118,4.45053575948707,1.492755651474,0.993024230003357,8.08510070779319,1.66639816761017,0.993054926395416
119,9.11852143546824,1.55683755874634,0.99719101190567,12.640814465581,1.75862014293671,0.9972043633461
120,5.89707953351141,1.59300637245178,0.996885716915131,3.8341221511719,1.77591598033905,0.996900200843811
121,12.2694972053609,1.68124186992645,0.994316756725311,8.22535029047239,1.82921707630157,0.994345724582672
122,10.9702809112343,1.75738155841827,0.996791183948517,8.35699454314241,1.88272345066071,0.996805429458618
123,9.04454969033892,1.81662678718567,0.986599981784821,10.6495842496802,1.95399868488312,0.986625552177429
124,12.5515418068596,1.90319871902466,0.997954249382019,11.1225831454709,2.02793884277344,0.997965097427368
125,8.1092165002556,1.95284688472748,0.99855774641037,8.86783873265666,2.08265829086304,0.998566687107086
126,10.724845269866,2.02246594429016,0.934831559658051,10.6828623672012,2.15091371536255,0.935120820999146
127,7.09307630507861,2.06239199638367,0.988858699798584,12.2268769169157,2.2302520275116,0.989048302173615
128,12.640814465581,2.14503598213196,0.98887050151825,10.7772178789706,2.29702520370483,0.988892614841461
129,8.39492176331654,2.19348454475403,0.998100578784943,7.30839161342185,2.33587312698364,0.998112559318542
130,11.2078943341545,2.26282620429993,0.998492002487183,11.2536620817619,2.40447163581848,0.998500466346741
131,9.10205549675197,2.31503415107727,0.995603442192078,9.10205549675197,2.45559811592102,0.995621144771576
132,8.41031569107231,2.36121034622192,0.996809661388397,8.41031569107231,2.50070953369141,0.996836423873901
133,12.5604935673543,2.43789672851562,0.998452305793762,12.5604935673543,2.57634687423706,0.998461604118347
134,12.640814465581,2.51403784751892,0.988837957382202,12.640814465581,2.65145492553711,0.988846838474274
135,10.724845269866,2.57485866546631,0.995706260204315,10.6040958518269,2.7103636264801,0.995726823806763
136,10.0899293553398,2.6301167011261,0.996254444122314,10.0899293553398,2.76462507247925,0.996271967887878
137,10.5900599623682,2.68821835517883,0.984745621681213,12.640814465581,2.83671402931213,0.984756886959076
138,9.67717972934066,2.73886299133301,0.988735496997833,9.16240175783873,2.8825523853302,0.988748788833618
139,10.4192098150587,2.79411745071411,0.998315691947937,12.7279880914736,2.95338273048401,0.998326122760773
140,5.62645256712925,2.81434845924377,0.923784375190735,7.00258784562595,2.9823055267334,0.924030542373657
141,15.6487570867363,2.90537261962891,0.996375501155853,15.6487570867363,3.07213830947876,0.996388792991638
142,6.69802999328339,2.93208169937134,0.998569250106812,8.70754127816963,3.11182427406311,0.998579382896423
143,12.4867887821355,2.99889755249023,0.998109340667725,10.1003370665632,3.16069507598877,0.998121678829193
144,13.5126406075295,3.0719096660614,0.906379342079163,13.5126406075295,3.23258376121521,0.90533709526062
145,12.640814465581,3.13790202140808,0.9947669506073,12.640814465581,3.2974681854248,0.994797468185425
146,9.78697617789072,3.18344378471375,0.99787175655365,9.78697617789072,3.34191632270813,0.997885406017303
147,10.1531320692098,3.2308566570282,0.998265564441681,10.1531320692098,3.38825130462646,0.998274803161621
148,10.1448557680798,3.27757263183594,0.989536881446838,6.369459645568,3.40839457511902,0.989559054374695
149,14.1672020957257,3.35065770149231,0.998480618000031,10.4082781595444,3.45537376403809,0.998488664627075
150,9.55753224091308,3.39203643798828,0.995891332626343,9.55753224091308,3.49605464935303,0.995908617973328
151,13.3812483143625,3.566237449646,0.998233675956726,8.97159429818804,3.65057373046875,0.998244404792786
152,8.49250417663138,3.73320317268372,0.9921795129776,5.94754560656373,3.81548595428467,0.992191016674042
153,10.1675190505069,3.89520502090454,0.998264014720917,10.1675190505069,3.99356031417847,0.998273611068726
154,8.41031569107231,4.01132440567017,0.996813118457794,8.41031569107231,4.18959903717041,0.996839761734009
155,12.6163757518419,4.2100944519043,0.996052384376526,14.4171302550547,4.3782787322998,0.996068358421326
156,5.22690260233427,4.2861065864563,0.742899298667908,7.94459612405153,4.53428554534912,0.743300318717957
157,8.52018425505128,4.47256422042847,0.995667815208435,9.77067607974893,4.69124269485474,0.995691359043121
158,10.581004371696,4.62233877182007,0.995103359222412,12.640814465581,4.88746881484985,0.995118975639343
159,12.640814465581,4.71616888046265,0.989809393882751,10.9220411351785,5.03693819046021,0.989823758602142
160,12.640814465581,4.90716886520386,0.995711445808411,12.640814465581,5.16902446746826,0.995730340480804
161,8.47757937549018,4.99574899673462,0.995018720626831,8.47757937549018,5.28121519088745,0.995042562484741
162,9.03957987680633,5.08753395080566,0.997337996959686,10.5900599623682,5.40570974349976,0.997348308563232
163,10.2983227969647,5.25651741027832,0.789666771888733,6.34116934137225,5.56136083602905,0.787113904953003
164,4.49794860213209,5.33659887313843,0.453067719936371,4.49794860213209,5.69038581848145,0.452446788549423
165,12.640814465581,5.46914625167847,0.993978023529053,9.068540633661,5.756676197052,0.993995726108551
166,9.77790502543941,5.6165018081665,0.998352408409119,11.0448166151378,5.91325855255127,0.998361170291901
167,15.6487570867363,5.73075389862061,0.996391236782074,14.1548487988443,6.0175724029541,0.996403932571411
168,10.5765656471604,5.83578872680664,0.993626952171326,12.640814465581,6.13346529006958,0.993647873401642
169,12.6425640335458,5.9863452911377,0.771962285041809,12.6425640335458,6.31032085418701,0.772316157817841
170,11.3258111291223,6.1189284324646,0.997922122478485,12.5796281251154,6.46424579620361,0.997933506965637
171,9.86426004751032,6.24355363845825,0.977529168128967,9.86426004751032,6.55155754089355,0.977549314498901
172,12.640814465581,6.35570096969604,0.985589683055878,12.640814465581,6.6451530456543,0.985592663288116
173,10.127395296647,6.47022008895874,0.997789978981018,10.127395296647,6.71918678283691,0.99780148267746
174,11.495702031769,6.56569194793701,0.998207569122314,10.2361907468828,6.84582662582397,0.998216092586517
175,11.6337565142467,6.67681550979614,0.999778568744659,11.6337565142467,6.94447088241577,0.999779522418976
176,10.6040958518269,6.72536706924438,0.997519671916962,12.640814465581,6.99007081985474,0.997527658939362
177,10.986131997178,6.83857917785645,0.997106611728668,10.986131997178,7.13329410552979,0.997117638587952
178,3.48538781535348,6.92312812805176,0.998113512992859,3.48538781535348,7.1398549079895,0.998123586177826
179,13.0307830899784,7.05169820785522,0.967044830322266,13.0307830899784,7.21492433547974,0.96687263250351
180,10.2798140654626,7.12012672424316,0.998239278793335,10.2798140654626,7.2863450050354,0.998247981071472
181,9.53172383824682,7.20947265625,0.991146743297577,8.27050653744164,7.33466529846191,0.991170763969421
182,8.7532501137408,7.32779932022095,0.998296558856964,8.7532501137408,7.40291166305542,0.998305201530457
183,11.7073128678847,7.40447759628296,0.992815375328064,9.60181157784498,7.46688890457153,0.99285900592804
184,13.2459044440514,7.4884934425354,0.996824264526367,11.9586861103205,7.59253406524658,0.996835172176361
185,6.75981124142126,7.54112243652344,0.998402059078217,6.75981124142126,7.66824388504028,0.998410582542419
186,9.10205549675197,7.57730960845947,0.995634257793427,9.10205549675197,7.69234704971313,0.995649755001068
187,8.78793573434123,7.63994121551514,0.995840609073639,10.0384275590389,7.74559640884399,0.995852708816528
188,6.75504770413394,7.71491146087646,0.994105815887451,6.75504770413394,7.82058906555176,0.994156718254089
189,11.2381700233776,7.7608790397644,0.991791963577271,11.2381700233776,7.91304302215576,0.991828441619873
190,7.15216572280258,7.83114242553711,0.998580932617188,8.40671643502647,7.98832511901855,0.998588621616364
191,11.2955215311296,7.91503572463989,0.997699558734894,10.0403676169982,8.036940574646,0.997712850570679
192,2.37174812863176,7.9308009147644,0.967727243900299,2.37174812863176,8.06260299682617,0.967928230762482
193,10.0825478076961,7.96399068832397,0.998108267784119,10.0825478076961,8.08441829681396,0.998116493225098
194,7.68510847630908,8.05740165710449,0.998416900634766,7.68510847630908,8.07433128356934,0.998423218727112
195,5.89707953351141,8.07003974914551,0.996884167194366,5.89707953351141,8.02663040161133,0.996892809867859
196,7.85763533731703,8.16760540008545,0.997222781181335,7.85763533731703,8.08886528015137,0.997229516506195
197,16.3703040480623,8.21156883239746,0.520078420639038,13.9493259035545,8.15902709960938,0.515584409236908
198,13.2755975567899,8.32708644866943,0.998566329479218,13.2755975567899,8.25698852539062,0.998572945594788
199,9.55894230282396,8.40519332885742,0.997746288776398,9.55894230282396,8.3515100479126,0.997752964496613
200,11.8925000817632,8.45129776000977,0.998221814632416,11.8925000817632,8.46470737457275,0.99823135137558
201,10.6040958518269,8.51340007781982,0.986579120159149,12.640814465581,8.49606609344482,0.986586213111877
202,7.94641740325542,8.58631324768066,0.388490408658981,7.94641740325542,8.50881385803223,0.389450490474701
203,12.7627105536923,8.61751937866211,0.308952897787094,12.7627105536923,8.54067611694336,0.309942930936813
204,9.78697617789072,8.69350337982178,0.99786251783371,9.78697617789072,8.58322143554688,0.997872829437256
205,8.08510070779319,8.72730350494385,0.993008375167847,8.08510070779319,8.63705158233643,0.993027865886688
206,12.640814465581,8.85004711151123,0.992207229137421,12.640814465581,8.72092819213867,0.992218494415283
207,14.0187725126457,8.90339946746826,0.997067153453827,14.0187725126457,8.74288749694824,0.997084081172943
208,11.5042415031029,9.00878047943115,0.998592436313629,11.5042415031029,8.81575489044189,0.998600900173187
209,10.2905801608863,9.08968639373779,0.900474786758423,10.2905801608863,8.85522651672363,0.900489866733551
210,10.5900599623682,9.11452388763428,0.988820135593414,12.640814465581,8.89233684539795,0.988813698291779
211,9.55753224091308,9.18315982818604,0.995880722999573,9.55753224091308,8.96146678924561,0.99589216709137
212,16.9362690110356,9.25296878814697,0.519419014453888,16.9362690110356,9.06962966918945,0.516041994094849
213,13.5517449785582,9.3129186630249,0.996862649917603,13.5517449785582,9.1674222946167,0.996875762939453
214,12.640814465581,9.39076805114746,0.994743347167969,12.640814465581,9.22474575042725,0.9947669506073
215,10.1448557680798,9.41413593292236,0.98950058221817,10.1448557680798,9.30169010162354,0.9895099401474
216,7.69207745197923,9.41930294036865,0.605374455451965,7.69207745197923,9.33569049835205,0.607383608818054
217,7.26480754126151,9.50186538696289,0.998191177845001,8.51985718872592,9.36623382568359,0.998197972774506
218,11.2778115278949,9.52864170074463,0.9987753033638,12.5341918991572,9.40136051177979,0.998781144618988
219,11.1892717251495,9.55947494506836,0.997572004795074,11.1892717251495,9.40829467773438,0.997582674026489
220,5.03756664490296,9.54209518432617,0.99221670627594,5.03756664490296,9.39164543151855,0.992237031459808
221,10.7772178789706,9.55514812469482,0.997523963451385,12.640814465581,9.46220397949219,0.997532248497009
222,11.1674147354568,9.55949211120605,0.998054623603821,11.1674147354568,9.48080825805664,0.998060882091522
223,12.2844755986624,9.56343269348145,0.999876976013184,12.2844755986624,9.50047969818115,0.999876022338867
224,12.7279880914736,9.58945274353027,0.998315334320068,12.7279880914736,9.53702163696289,0.998323142528534
225,7.01079584714962,9.54463577270508,0.997947514057159,7.01079584714962,9.51661014556885,0.997957229614258
226,13.1206540760372,9.52342128753662,0.997866213321686,10.8302836104557,9.5068883895874,0.997877359390259
227,5.94490115228409,9.55055999755859,0.997034430503845,5.94490115228409,9.5277681350708,0.997046768665314
228,18.8397235418973,9.69665813446045,0.973089993000031,18.8397235418973,9.6355562210083,0.972728133201599
229,12.640814465581,9.75559711456299,0.992096662521362,12.640814465581,9.659912109375,0.992109000682831
230,14.0950103149038,9.80924797058105,0.998292744159698,14.0950103149038,9.71375179290771,0.998301208019257
231,12.640814465581,9.86340999603271,0.992957353591919,10.6828623672012,9.74479866027832,0.992966651916504
232,12.640814465581,9.91465282440186,0.988840639591217,12.640814465581,9.7822961807251,0.988848686218262
233,11.2337335821686,9.91994762420654,0.998099625110626,12.4867887821355,9.78749179840088,0.998109102249146
234,10.0077358778169,9.94898223876953,0.998770654201508,10.0077358778169,9.79477214813232,0.998776853084564
235,14.1672020957257,10.0008964538574,0.998471677303314,14.1672020957257,9.83708000183105,0.99847823381424
236,9.93952204464166,9.98628902435303,0.993295252323151,11.1963393043371,9.87374782562256,0.993323862552643
237,12.640814465581,10.0489339828491,0.997176885604858,12.640814465581,9.91969966888428,0.997186958789825
238,13.0037696470855,10.0805130004883,0.998357951641083,13.0037696470855,9.96799850463867,0.998364388942719
239,11.4926108968167,10.0819644927979,0.976223766803741,11.4926108968167,9.99964237213135,0.976212322711945
240,10.0897555859304,10.0926122665405,0.996027708053589,10.0897555859304,10.0346012115479,0.996041774749756
241,12.640814465581,10.1266632080078,0.996988832950592,12.640814465581,10.0585088729858,0.99699592590332
242,11.2078943341545,10.1391296386719,0.998477399349213,9.95407733816149,10.0912046432495,0.998484671115875
243,11.1287589046367,10.1533784866333,0.997504413127899,11.1287589046367,10.1054706573486,0.997513771057129
244,12.5604935673543,10.2325391769409,0.998439490795135,12.5604935673543,10.1421031951904,0.998446762561798
245,11.7771111488169,10.2574005126953,0.995890617370605,11.7771111488169,10.1245651245117,0.995908141136169
246,13.8648845287402,10.2744207382202,0.998060286045074,12.6080976991072,10.1458377838135,0.998069822788239
247,10.8356733586691,10.2958889007568,0.998369634151459,10.8356733586691,10.144606590271,0.998376488685608
248,7.36498072426846,10.3151998519897,0.957625389099121,7.36498072426846,10.1604633331299,0.958041131496429
249,11.4009087283623,10.3534126281738,0.99820077419281,11.4009087283623,10.2228355407715,0.998210310935974
250,5.34661239665511,10.3318176269531,0.997854769229889,7.35339922628819,10.2146186828613,0.997866809368134
251,10.1205611526555,10.3655881881714,0.998548209667206,10.1205611526555,10.2242298126221,0.998556435108185
252,13.3121515775621,10.3824882507324,0.998311281204224,13.3121515775621,10.2728452682495,0.998320877552032
253,11.3182491385377,10.3736715316772,0.99783331155777,11.5320014964482,10.2891836166382,0.997840881347656
254,10.024275210992,10.3888311386108,0.995160281658173,11.2747670356897,10.3043594360352,0.995168566703796
255,9.69001444635862,10.3926267623901,0.998548328876495,9.69001444635862,10.3085174560547,0.998556673526764
256,7.76152443731332,10.3657064437866,0.99802553653717,7.76152443731332,10.3185043334961,0.998036444187164
257,13.2775236838877,10.3827705383301,0.997828185558319,13.2775236838877,10.378267288208,0.997838318347931
258,8.70754127816963,10.4023818969727,0.998552143573761,8.70754127816963,10.3838806152344,0.998561441898346
259,12.640814465581,10.4421911239624,0.997246980667114,12.640814465581,10.4001712799072,0.997258186340332
260,12.5515418068596,10.4721965789795,0.997941315174103,12.5515418068596,10.4404916763306,0.997951328754425
261,13.2102812708819,10.4900770187378,0.949316620826721,13.2102812708819,10.4670610427856,0.949182391166687
262,14.0539998840528,10.5320272445679,0.997461438179016,14.0539998840528,10.5173568725586,0.9974724650383
263,5.62645256712925,10.5211000442505,0.92300671339035,5.62645256712925,10.4816255569458,0.923114478588104
264,13.1206540760372,10.5399751663208,0.998307108879089,13.1206540760372,10.5088920593262,0.998315453529358
265,12.640814465581,10.5627574920654,0.984599530696869,12.640814465581,10.5225639343262,0.984587073326111
266,14.4077386030361,10.5858659744263,0.474636197090149,14.4077386030361,10.566915512085,0.472189009189606
267,12.640814465581,10.6093616485596,0.993641078472137,12.640814465581,10.5937051773071,0.993666708469391
268,6.40500510965057,10.6223907470703,0.998512089252472,5.14549382476432,10.5741090774536,0.998520076274872
269,13.2846055787312,10.650164604187,0.995413482189178,13.2846055787312,10.5784006118774,0.995433211326599
270,11.0619769505665,10.6845970153809,0.998161137104034,11.0619769505665,10.6265869140625,0.998167753219604
271,12.2268769169157,10.6843128204346,0.988918840885162,10.9577913799925,10.6448030471802,0.989119172096252
272,10.1531320692098,10.6788654327393,0.998240351676941,10.1531320692098,10.656777381897,0.998248100280762
273,12.8495498869235,10.7042322158813,0.993976831436157,12.8495498869235,10.671443939209,0.99400806427002
274,13.9695307326709,10.7136850357056,0.995310246944427,13.9695307326709,10.6904230117798,0.995324850082397
275,12.2694972053609,10.7414207458496,0.994325578212738,12.2694972053609,10.7131004333496,0.994349896907806
276,11.6947634724944,10.7478876113892,0.998348712921143,13.0137545781646,10.7286396026611,0.99835616350174
277,12.640814465581,10.7848711013794,0.93465381860733,12.640814465581,10.7313995361328,0.934906244277954
278,11.1276938329014,10.7747840881348,0.993159413337708,11.1276938329014,10.733736038208,0.99310827255249
279,6.41867914678156,10.7616090774536,0.920482575893402,3.43173932013878,10.7078914642334,0.920503258705139
280,8.58593147939448,10.7441301345825,0.996203482151031,8.58593147939448,10.6901063919067,0.996222853660583
281,12.6873027014973,10.7680311203003,0.996978163719177,12.6873027014973,10.7140083312988,0.99698668718338
282,11.6871641385075,10.7898769378662,0.987689733505249,12.9457792603657,10.7442445755005,0.987698256969452
283,11.4798414229224,10.7826728820801,0.998564898967743,14.3170776728627,10.755955696106,0.998571276664734
284,8.30939117324299,10.7537965774536,0.996545851230621,8.30939117324299,10.7270803451538,0.996554851531982
285,3.7415808618146,10.7072410583496,0.998281836509705,7.42508597327614,10.7058868408203,0.99828976392746
286,11.8003827184747,10.7186441421509,0.988659083843231,11.8003827184747,10.7172899246216,0.988654375076294
287,12.267127342923,10.7298250198364,0.89114511013031,13.5543456766539,10.7233791351318,0.892143845558167
288,12.640814465581,10.7495822906494,0.997335970401764,12.640814465581,10.7465686798096,0.997344553470612
289,10.0760455239371,10.7472953796387,0.997657418251038,10.0760455239371,10.7288885116577,0.997663259506226
290,10.2894243048348,10.7783813476562,0.98197466135025,7.66649925710419,10.7333145141602,0.982054889202118
291,11.2470898840048,10.7490367889404,0.998486876487732,11.2470898840048,10.7039709091187,0.998493671417236
292,12.4145354122665,10.7871465682983,0.998062789440155,12.4145354122665,10.728684425354,0.998044848442078
293,13.5126406075295,10.7939863204956,0.906629323959351,13.5126406075295,10.7514324188232,0.905370116233826
294,5.47424617761436,10.7403974533081,0.967935502529144,5.47424617761436,10.6978435516357,0.968213677406311
295,9.52388234279731,10.7196178436279,0.998506128787994,9.52388234279731,10.6770639419556,0.998513281345367
296,10.0899293553398,10.7216377258301,0.996184289455414,10.0899293553398,10.6790838241577,0.996193051338196
297,12.640814465581,10.7382211685181,0.997220754623413,12.640814465581,10.69566822052,0.997229516506195
298,10.724845269866,10.7420873641968,0.997261047363281,10.9220411351785,10.7260189056396,0.997267484664917
299,11.140573371043,10.7219095230103,0.998596847057343,11.140573371043,10.730899810791,0.998604714870453
300,8.39492176331654,10.7141590118408,0.998068273067474,8.39492176331654,10.7231492996216,0.99807870388031
301,12.640814465581,10.7092227935791,0.997489094734192,12.640814465581,10.7476110458374,0.997496783733368
302,12.8495498869235,10.7382707595825,0.993978381156921,12.8495498869235,10.7936248779297,0.994003593921661
303,9.69001444635862,10.7350873947144,0.99853777885437,9.69001444635862,10.7904415130615,0.998545050621033
304,9.77606982111112,10.7441921234131,0.988675475120544,11.8003827184747,10.8130416870117,0.988672435283661
305,11.8143654739342,10.738844871521,0.949348747730255,11.0112591485986,10.7903356552124,0.949270367622375
306,12.2844755986624,10.7858963012695,0.99987804889679,12.2844755986624,10.8192682266235,0.999877214431763
307,12.640814465581,10.8133668899536,0.934593260288239,10.581004371696,10.824670791626,0.934830367565155
308,12.9457792603657,10.8291320800781,0.987683475017548,10.7147758846305,10.8118305206299,0.987690448760986
309,10.1205611526555,10.812331199646,0.998535871505737,10.1205611526555,10.8064880371094,0.998543262481689
310,12.4867887821355,10.8113040924072,0.998074650764465,12.4867887821355,10.8054609298706,0.998083829879761
311,8.27082714283046,10.8099250793457,0.998504161834717,9.52388234279731,10.8124361038208,0.998511493206024
312,14.4077386030361,10.8457126617432,0.473306596279144,14.4077386030361,10.8378868103027,0.470991104841232
313,11.0270651358479,10.8505716323853,0.995621144771576,9.76015354614947,10.8606805801392,0.995635330677032
314,15.6487570867363,10.9249105453491,0.996332108974457,11.8202018063025,10.9094953536987,0.996336460113525
315,13.0137545781646,10.9273958206177,0.998345851898193,13.0137545781646,10.9357967376709,0.998351454734802
316,5.94490115228409,10.9018421173096,0.996991395950317,5.94490115228409,10.9017972946167,0.997001707553864
317,11.2470898840048,10.8724985122681,0.998486399650574,11.2470898840048,10.8824119567871,0.99849259853363
318,9.88751817107613,10.8679056167603,0.99859219789505,11.140573371043,10.872410774231,0.998599231243134
319,12.2268769169157,10.8651332855225,0.989025294780731,12.2268769169157,10.8696393966675,0.989215075969696
320,13.1206540760372,10.8770990371704,0.997832953929901,11.7997851363254,10.8644399642944,0.997842669487
321,10.986131997178,10.884578704834,0.997024238109589,10.986131997178,10.871919631958,0.997032284736633
322,12.6425640335458,10.8845901489258,0.766174733638763,12.6425640335458,10.8719310760498,0.766242861747742
323,12.6873027014973,10.9016561508179,0.99695360660553,12.6873027014973,10.8889970779419,0.996960937976837
324,7.36498072426846,10.8741178512573,0.956376433372498,6.11225830426967,10.8615045547485,0.956771194934845
325,13.2755975567899,10.8850631713867,0.99853789806366,13.2755975567899,10.8724508285522,0.998543977737427
326,9.10205549675197,10.8750495910645,0.995557963848114,9.10205549675197,10.8488578796387,0.995567977428436
327,11.8925000817632,10.8810920715332,0.998199701309204,11.8925000817632,10.8549003601074,0.9982088804245
328,8.7532501137408,10.9162111282349,0.998252928256989,6.46935409300622,10.8747930526733,0.998260319232941
329,9.55032934621403,10.8930082321167,0.997925162315369,12.5515418068596,10.8715982437134,0.997933506965637
330,12.640814465581,10.908748626709,0.99721884727478,9.18013994720236,10.8642673492432,0.997228682041168
331,3.24685606139222,10.8668489456177,0.456759542226791,4.49794860213209,10.8391180038452,0.45634326338768
332,13.3121515775621,10.8972415924072,0.998292624950409,13.3121515775621,10.8695096969604,0.99830162525177
333,14.0187725126457,10.912652015686,0.99701714515686,12.766050092647,10.8906049728394,0.997034192085266
334,13.3812483143625,10.9135541915894,0.998189151287079,13.3812483143625,10.9000883102417,0.998197376728058
335,6.75504770413394,10.9135227203369,0.993895828723907,6.75504770413394,10.9000568389893,0.993955671787262
336,10.581004371696,10.9233818054199,0.984497427940369,10.8420820912112,10.911657333374,0.984484910964966
337,9.55753224091308,10.9285125732422,0.99579656124115,9.55753224091308,10.9084501266479,0.995808124542236
338,7.76152443731332,10.9352226257324,0.998001158237457,7.76152443731332,10.9151611328125,0.998011827468872
339,10.4050241273803,10.9296684265137,0.998071014881134,12.4145354122665,10.9230041503906,0.998053550720215
340,10.1675190505069,10.9497709274292,0.998231470584869,10.1675190505069,10.9347429275513,0.998237609863281
341,5.77316519641923,10.9129543304443,0.382059514522552,7.94641740325542,10.9207830429077,0.383266687393188
342,13.2775236838877,10.9856595993042,0.997821569442749,12.0235706514633,10.9851274490356,0.997830092906952
343,10.0077358778169,10.9851608276367,0.998750686645508,10.0077358778169,10.9846286773682,0.998756647109985
344,10.1448557680798,11.0015592575073,0.989325404167175,8.88534448319352,10.9926300048828,0.989333033561707
345,12.640814465581,11.0465173721313,0.99723756313324,12.640814465581,11.0375890731812,0.997245669364929
346,10.2905801608863,11.0627374649048,0.901507139205933,10.2905801608863,11.0538082122803,0.901831150054932
347,12.640814465581,11.0378742218018,0.989628970623016,12.640814465581,11.0450849533081,0.989629805088043
348,11.0619769505665,11.0231170654297,0.998141050338745,11.0619769505665,11.0303268432617,0.998147130012512
349,13.9695307326709,11.0525197982788,0.995265126228333,13.9695307326709,11.0597305297852,0.995278239250183
350,7.69207745197923,11.0245170593262,0.599483549594879,7.69207745197923,11.0317287445068,0.601307690143585
351,12.7279880914736,11.0386772155762,0.998293459415436,12.7279880914736,11.0323095321655,0.998301088809967
352,10.0899293553398,11.0529670715332,0.996155917644501,10.0899293553398,11.0466003417969,0.996165633201599
353,5.77418814081859,11.0063772201538,0.996519446372986,6.02135434360991,11.0016574859619,0.996529400348663
354,11.5042415031029,11.0178251266479,0.998573899269104,11.5042415031029,11.0131063461304,0.998581767082214
355,12.640814465581,11.0481967926025,0.992057025432587,12.640814465581,11.0434770584106,0.992067098617554
356,9.55894230282396,11.0276508331299,0.997695505619049,9.55894230282396,11.022931098938,0.997702062129974
357,12.640814465581,11.0184640884399,0.996929347515106,12.640814465581,11.0137453079224,0.996937036514282
358,12.640814465581,11.0260410308838,0.997203707695007,12.640814465581,11.0213222503662,0.997213065624237
359,8.89362078432356,11.0167284011841,0.998224318027496,8.89362078432356,11.0120096206665,0.998230636119843
360,12.927917293396,11.0323143005371,0.997797608375549,12.927917293396,11.0139236450195,0.99780410528183
361,18.8397235418973,11.0941963195801,0.973829567432404,18.8397235418973,11.0758037567139,0.97343111038208
362,11.1276938329014,11.0554723739624,0.993328809738159,11.1276938329014,11.0370798110962,0.993277847766876
363,16.3703040480623,11.0742616653442,0.517461657524109,16.3703040480623,11.0558710098267,0.512549817562103
364,8.40671643502647,11.0460348129272,0.998554527759552,7.15289943903343,11.0192842483521,0.998561441898346
365,11.0448166151378,11.0520343780518,0.998300850391388,11.0448166151378,11.0252847671509,0.998307228088379
366,10.0825478076961,11.0679721832275,0.998056292533875,10.0825478076961,11.0412216186523,0.998063862323761
367,14.1672020957257,11.1139879226685,0.998436868190765,14.1672020957257,11.0788707733154,0.998442471027374
368,15.2759542544671,11.1406412124634,0.993149220943451,15.2759542544671,11.0971488952637,0.9931760430336
369,7.01079584714962,11.1127843856812,0.997905969619751,7.01079584714962,11.0692930221558,0.99791544675827
370,11.1287589046367,11.153392791748,0.997450768947601,8.83704259050559,11.0946226119995,0.997458875179291
371,11.7771111488169,11.1600589752197,0.995799958705902,11.7771111488169,11.0888643264771,0.995814621448517
372,9.19654968175467,11.1469202041626,0.998442590236664,11.2078943341545,11.0891332626343,0.998448967933655
373,14.3170776728627,11.1604700088501,0.998550474643707,11.8341241519208,11.0861310958862,0.998556911945343
374,8.47757937549018,11.132134437561,0.994890809059143,8.47757937549018,11.0577955245972,0.994902968406677
375,10.0384275590389,11.1523189544678,0.995675027370453,8.0250921676167,11.0645570755005,0.995685696601868
376,12.640814465581,11.1491193771362,0.99743241071701,12.640814465581,11.0766277313232,0.997440457344055
377,8.08510070779319,11.163387298584,0.992810785770416,8.08510070779319,11.090895652771,0.992830812931061
378,11.1892717251495,11.1123847961426,0.99750155210495,11.1892717251495,11.0398921966553,0.997512102127075
379,12.2694972053609,11.1099090576172,0.994298696517944,12.2694972053609,11.0374174118042,0.994317352771759
380,10.2798140654626,11.0844745635986,0.99818354845047,10.2798140654626,11.0119819641113,0.99819153547287
381,12.640814465581,11.0844745635986,0.992801189422607,12.640814465581,11.0250358581543,0.992810249328613
382,14.4171302550547,11.0963163375854,0.995976984500885,14.4171302550547,11.0368776321411,0.995984554290771
383,7.42508597327614,11.0709257125854,0.998264133930206,7.42508597327614,11.0031328201294,0.998272299766541
384,12.640814465581,11.0884790420532,0.997109234333038,12.640814465581,11.0206871032715,0.997119784355164
385,3.41763344345275,11.0168151855469,0.967673659324646,3.13050282624215,10.9471082687378,0.967984318733215
386,8.51985718872592,11.0073518753052,0.998142123222351,8.51985718872592,10.9292659759521,0.998148679733276
387,12.640814465581,11.0073518753052,0.9886873960495,12.640814465581,10.9292659759521,0.988677263259888
388,9.14415638824349,10.9816207885742,0.997639417648315,11.2955215311296,10.9178771972656,0.997653543949127
389,6.40500510965057,10.9477033615112,0.998494625091553,6.40500510965057,10.8839597702026,0.998501658439636
390,10.0760455239371,10.9476118087769,0.997650682926178,10.0760455239371,10.8838682174683,0.997657418251038
391,7.35339922628819,10.9123620986938,0.997822165489197,5.34388794140195,10.8352222442627,0.997833907604218
392,9.86426004751032,10.9034042358398,0.977529048919678,9.86426004751032,10.8346242904663,0.977511644363403
393,11.1674147354568,10.9036626815796,0.998002827167511,11.1674147354568,10.8348808288574,0.998009264469147
394,11.0203040480623,10.8933944702148,0.991961419582367,12.640814465581,10.8354167938232,0.991976201534271
395,11.6337565142467,10.8924379348755,0.999796569347382,10.1993864631485,10.8248987197876,0.999797761440277
396,8.70754127816963,10.8580560684204,0.998538017272949,6.14169933042632,10.7817897796631,0.998545169830322
397,12.640814465581,10.8700904846191,0.994935750961304,11.0203040480623,10.7830209732056,0.994948029518127
398,12.640814465581,10.9052619934082,0.994622945785522,12.640814465581,10.8181924819946,0.99464476108551
399,8.39492176331654,10.8852233886719,0.998050212860107,8.39492176331654,10.798152923584,0.998060405254364
400,5.03756664490296,10.8831624984741,0.992047190666199,5.03756664490296,10.7827129364014,0.992067694664001
401,5.62645256712925,10.8532018661499,0.922531425952911,4.37190185490536,10.7443885803223,0.922652900218964
402,11.4926108968167,10.8410711288452,0.97614723443985,8.50508976524605,10.7123413085938,0.976106643676758
403,12.640814465581,10.8498878479004,0.997310876846313,12.640814465581,10.7197332382202,0.997319757938385
404,6.60714351261939,10.8271064758301,0.997149884700775,7.85763533731703,10.6969518661499,0.997156023979187
405,8.53302314546632,10.8193941116333,0.997811257839203,9.78697617789072,10.6975994110107,0.997820734977722
406,11.7073128678847,10.8456993103027,0.992529571056366,11.7073128678847,10.7239046096802,0.992558121681213
407,12.640814465581,10.8414545059204,0.993560433387756,12.640814465581,10.7196598052979,0.993581175804138
408,13.0037696470855,10.870096206665,0.99831885099411,13.0037696470855,10.7483015060425,0.998323261737823
409,12.640814465581,10.870096206665,0.985241591930389,12.640814465581,10.7483015060425,0.985235810279846
410,13.2459044440514,10.8747253417969,0.996742308139801,13.2459044440514,10.7529306411743,0.996747136116028
411,12.5796281251154,10.8705205917358,0.997844099998474,12.5796281251154,10.7487268447876,0.99785053730011
412,10.8356733586691,10.8490648269653,0.998335897922516,10.8356733586691,10.7272701263428,0.998340725898743
413,16.9362690110356,10.9244632720947,0.524282932281494,16.9362690110356,10.8026695251465,0.521159470081329
414,14.0539998840528,10.9306859970093,0.997409522533417,14.0539998840528,10.8088912963867,0.997417211532593
415,13.5543456766539,10.9367761611938,0.892092943191528,13.5543456766539,10.8149824142456,0.893081843852997
416,3.48538781535348,10.8639612197876,0.998048067092896,3.48538781535348,10.742166519165,0.998055934906006
417,11.2747670356897,10.8548536300659,0.995044231414795,11.2747670356897,10.7330598831177,0.995051681995392
418,9.22682537097773,10.8736658096313,0.991621613502502,11.2381700233776,10.7736768722534,0.99165415763855
419,12.5341918991572,10.8686628341675,0.998744606971741,11.2774081057668,10.7602958679199,0.998749256134033
420,5.89707953351141,10.8342304229736,0.996772587299347,5.89707953351141,10.7258634567261,0.996780395507812
421,13.5517449785582,10.8430633544922,0.996802926063538,13.5517449785582,10.7431564331055,0.996812403202057
422,10.2894243048348,10.8439712524414,0.981891810894012,9.01147275764757,10.7355451583862,0.981958568096161
423,12.640814465581,10.8425798416138,0.997239351272583,10.6040958518269,10.7205753326416,0.997246742248535
424,12.640814465581,10.833722114563,0.995565474033356,12.640814465581,10.7117166519165,0.995579063892365
425,7.68510847630908,10.8031587600708,0.99837601184845,7.68510847630908,10.6811552047729,0.998380780220032
426,12.7627105536923,10.8102798461914,0.296945869922638,12.7627105536923,10.6794815063477,0.298010468482971
427,10.127395296647,10.7935237884521,0.99771773815155,10.127395296647,10.6627254486084,0.99772697687149
428,13.2846055787312,10.8079032897949,0.995380282402039,13.2846055787312,10.6771049499512,0.995393395423889
429,10.0897555859304,10.8323774337769,0.995898902416229,10.0897555859304,10.7214908599854,0.995911478996277
430,12.640814465581,10.8594093322754,0.993437945842743,12.640814465581,10.7485237121582,0.993453145027161
431,13.0307830899784,10.8616991043091,0.967350840568542,13.0307830899784,10.7508134841919,0.967166364192963
432,12.640814465581,10.8680562973022,0.993763387203217,12.640814465581,10.7487812042236,0.99377429485321
433,14.0950103149038,10.8854904174805,0.998253285884857,14.0950103149038,10.7473001480103,0.998260200023651
434,6.5773163575363,10.8739433288574,0.99620133638382,8.58593147939448,10.7491436004639,0.996216833591461
435,7.94459612405153,10.9019632339478,0.747626185417175,7.94459612405153,10.7526073455811,0.747665762901306
436,6.75981124142126,10.8683605194092,0.99833208322525,4.74696859089906,10.705584526062,0.998338222503662
437,12.640814465581,10.8708524703979,0.988621890544891,12.640814465581,10.6994934082031,0.988628745079041
438,8.49250417663138,10.8431959152222,0.992062747478485,7.24168205783099,10.663498878479,0.992046117782593
439,3.43173932013878,10.798900604248,0.920369327068329,3.43173932013878,10.6192045211792,0.920453190803528
440,13.5126406075295,10.8203887939453,0.90659898519516,13.5126406075295,10.6581783294678,0.905579566955566
441,13.1206540760372,10.8328790664673,0.998276114463806,13.1206540760372,10.6706686019897,0.998281836509705
442,10.2983227969647,10.8187713623047,0.803984761238098,10.2983227969647,10.6565608978271,0.801406562328339
443,11.4009087283623,10.8046922683716,0.998164594173431,9.0621588068608,10.6268911361694,0.998172044754028
444,9.05120567123673,10.8285388946533,0.986408352851868,12.640814465581,10.6746683120728,0.986411273479462
445,9.53172383824682,10.828592300415,0.991038978099823,8.28090171944643,10.6663818359375,0.991053760051727
446,2.37174812863176,10.7771368026733,0.966943502426147,2.37174812863176,10.6149263381958,0.967136144638062
447,13.8648845287402,10.7852973937988,0.998019933700562,13.8648845287402,10.6230878829956,0.998026788234711
448,8.41031569107231,10.7698669433594,0.996696829795837,8.41031569107231,10.6063423156738,0.996717393398285
449,11.495702031769,10.772234916687,0.99817168712616,11.495702031769,10.6087112426758,0.998177766799927
450,12.5604935673543,10.8000049591064,0.998397409915924,12.5604935673543,10.6364812850952,0.998403131961823
451,12.640814465581,10.8000049591064,0.997235238552094,12.640814465581,10.6364812850952,0.99724280834198
452,12.640814465581,10.7986135482788,0.995557367801666,12.640814465581,10.6350898742676,0.995571196079254
453,10.6828623672012,10.805233001709,0.99198180437088,12.640814465581,10.6547603607178,0.991995573043823
454,12.640814465581,10.8243312835693,0.997175574302673,12.640814465581,10.660364151001,0.997185170650482
455,14.4171302550547,10.8416833877563,0.995954871177673,14.4171302550547,10.683069229126,0.995958983898163
456,11.140573371043,10.834056854248,0.998575925827026,11.140573371043,10.675443649292,0.998582720756531
457,13.2755975567899,10.8382883071899,0.998525321483612,13.2755975567899,10.6934070587158,0.998530983924866
458,14.0187725126457,10.8454418182373,0.996992349624634,14.0187725126457,10.7154350280762,0.997008383274078
459,10.0077358778169,10.8446893692017,0.998740494251251,8.74354321097674,10.7062530517578,0.998745679855347
460,5.03756664490296,10.7950277328491,0.991996467113495,5.03756664490296,10.6565914154053,0.992018759250641
461,14.0950103149038,10.8338556289673,0.998253762722015,14.0950103149038,10.6870670318604,0.998260796070099
462,10.8420820912112,10.8100843429565,0.993553996086121,12.640814465581,10.6752862930298,0.993578672409058
463,13.0037696470855,10.8232622146606,0.998311638832092,13.0037696470855,10.6969108581543,0.998316645622253
464,8.89362078432356,10.7782287597656,0.998205661773682,10.1531320692098,10.6857976913452,0.998212099075317
465,12.2268769169157,10.7729835510254,0.9890216588974,10.9099249182206,10.6717720031738,0.989196181297302
466,14.0539998840528,10.8270444869995,0.997398018836975,14.0539998840528,10.7258329391479,0.997405707836151
467,12.640814465581,10.8363351821899,0.989601790904999,12.640814465581,10.7351236343384,0.989604592323303
468,8.39492176331654,10.8263854980469,0.998033463954926,8.39492176331654,10.7168197631836,0.998043179512024
469,8.41031569107231,10.8009414672852,0.996687948703766,8.41031569107231,10.6913757324219,0.99670934677124
470,12.5341918991572,10.7970323562622,0.998742043972015,12.5341918991572,10.6962718963623,0.998746395111084
471,7.94459612405153,10.7767543792725,0.748052597045898,7.94459612405153,10.6759948730469,0.748187184333801
472,11.2955215311296,10.7677745819092,0.997628629207611,11.2955215311296,10.6670150756836,0.997641444206238
473,13.1206540760372,10.7706632614136,0.998273015022278,13.1206540760372,10.669903755188,0.998279690742493
474,8.08510070779319,10.7754640579224,0.99276477098465,8.08510070779319,10.6830568313599,0.992784023284912
475,2.37174812863176,10.7027721405029,0.966827034950256,2.37174812863176,10.6103649139404,0.967043042182922
476,8.70754127816963,10.7001419067383,0.998526930809021,8.70754127816963,10.6077346801758,0.998534321784973
477,10.6040958518269,10.6915521621704,0.985222637653351,12.640814465581,10.6127233505249,0.985218584537506
478,12.9085869738675,10.7192544937134,0.998419523239136,14.1672020957257,10.664041519165,0.998424887657166
479,10.0899293553398,10.7228527069092,0.996115326881409,10.0899293553398,10.6476306915283,0.996123492717743
480,9.55753224091308,10.7022972106934,0.995755851268768,9.55753224091308,10.650146484375,0.995766639709473
481,8.30939117324299,10.736047744751,0.996487975120544,8.30939117324299,10.6755561828613,0.996497869491577
482,10.0897555859304,10.7145652770996,0.995891690254211,10.0897555859304,10.65407371521,0.995904147624969
483,5.678321646676,10.6589612960815,0.998376369476318,7.68510847630908,10.6202001571655,0.998381495475769
484,11.2381700233776,10.6446743011475,0.991629779338837,11.2381700233776,10.6059131622314,0.99166202545166
485,5.62645256712925,10.637149810791,0.922292292118073,3.29614239748802,10.5828552246094,0.92246675491333
486,11.3059428551304,10.6419830322266,0.998392879962921,11.2680969029922,10.5856943130493,0.99839836359024
487,7.76152443731332,10.6300106048584,0.99797660112381,6.51029889638483,10.5653791427612,0.997985601425171
488,11.7073128678847,10.6563148498535,0.992457866668701,11.7073128678847,10.5916843414307,0.992487192153931
489,12.640814465581,10.6712207794189,0.99275279045105,12.640814465581,10.5931930541992,0.992762506008148
490,13.1206540760372,10.6909084320068,0.997799336910248,13.1206540760372,10.6128807067871,0.99780946969986
491,12.640814465581,10.7366924285889,0.988641798496246,12.640814465581,10.6441764831543,0.988637626171112
492,13.5517449785582,10.7385206222534,0.996792376041412,13.5517449785582,10.6543655395508,0.996803045272827
493,13.2775236838877,10.7603187561035,0.99780136346817,13.2775236838877,10.6761636734009,0.997808039188385
494,12.640814465581,10.7769584655762,0.997080743312836,12.640814465581,10.7011995315552,0.997089445590973
495,12.7279880914736,10.7775402069092,0.998278141021729,12.7279880914736,10.7017812728882,0.998284876346588
496,9.86426004751032,10.774697303772,0.977281928062439,9.86426004751032,10.698938369751,0.977254509925842
497,5.89707953351141,10.7297391891479,0.996741354465485,5.89707953351141,10.653980255127,0.996748566627502
498,7.33959092932593,10.7049236297607,0.995571732521057,9.77067607974893,10.6453714370728,0.995583236217499
499,11.6337565142467,10.6893520355225,0.99980241060257,11.6337565142467,10.6297998428345,0.999803483486176
500,13.0307830899784,10.7249431610107,0.967532455921173,13.0307830899784,10.6653909683228,0.96730363368988
501,14.3170776728627,10.7355375289917,0.998534202575684,14.3170776728627,10.6759843826294,0.998539328575134
502,11.2470898840048,10.7432508468628,0.998466730117798,11.2470898840048,10.6836996078491,0.998471915721893
503,8.7532501137408,10.7631120681763,0.998222887516022,8.7532501137408,10.7019128799438,0.998229086399078
504,11.2747670356897,10.7615823745728,0.994995832443237,11.2747670356897,10.700382232666,0.994998812675476
505,5.94490115228409,10.7169427871704,0.9969322681427,5.94490115228409,10.6557426452637,0.99694037437439
506,9.10205549675197,10.7138967514038,0.995538651943207,9.10205549675197,10.6526966094971,0.995545625686646
507,12.640814465581,10.7138967514038,0.994854927062988,12.640814465581,10.6526966094971,0.994862973690033
508,12.640814465581,10.7138967514038,0.993723571300507,12.640814465581,10.6526966094971,0.993730425834656
509,7.94641740325542,10.7075824737549,0.374596059322357,7.94641740325542,10.6463823318481,0.376230150461197
510,12.4867887821355,10.7046413421631,0.998035132884979,12.4867887821355,10.6434421539307,0.998043179512024
511,16.1343301073452,10.6866044998169,0.975566864013672,16.5152105597189,10.6279439926147,0.975205779075623
512,10.6828623672012,10.6836395263672,0.99687248468399,12.640814465581,10.6380319595337,0.996878147125244
513,8.47757937549018,10.6310205459595,0.994865238666534,8.47757937549018,10.5854148864746,0.994873702526093
514,10.2798140654626,10.6435079574585,0.9981649518013,10.2798140654626,10.6062602996826,0.998171091079712
515,12.9457792603657,10.6561813354492,0.987613081932068,12.9457792603657,10.6189336776733,0.987593352794647
516,4.86143618546928,10.621374130249,0.955412209033966,7.36498072426846,10.6008157730103,0.955911159515381
517,12.7627105536923,10.6120119094849,0.293429106473923,12.7627105536923,10.5914525985718,0.294658780097961
518,12.640814465581,10.5944442749023,0.984423458576202,12.640814465581,10.5738849639893,0.984409034252167
519,8.58593147939448,10.604944229126,0.996218740940094,8.58593147939448,10.5843868255615,0.996233522891998
520,12.640814465581,10.6150255203247,0.997400999069214,12.640814465581,10.6097440719604,0.997407495975494
521,7.44010548876122,10.5861120223999,0.461572378873825,2.48843731724585,10.5478200912476,0.461024731397629
522,3.73948214765003,10.5497303009033,0.998248815536499,7.42508597327614,10.5226011276245,0.998256385326385
523,13.5543456766539,10.5446462631226,0.891911923885345,13.5543456766539,10.5340690612793,0.892842233181
524,7.69207745197923,10.5394096374512,0.5974280834198,7.69207745197923,10.5288333892822,0.600586354732513
525,10.986131997178,10.545726776123,0.996949255466461,10.986131997178,10.5485734939575,0.99695885181427
526,6.60714351261939,10.5055017471313,0.997107923030853,7.85763533731703,10.5166864395142,0.997114658355713
527,12.2844755986624,10.5334987640381,0.999879240989685,12.2844755986624,10.5446805953979,0.999878525733948
528,12.640814465581,10.5431756973267,0.994527757167816,12.640814465581,10.5543584823608,0.994553685188293
529,5.5019925041671,10.4980583190918,0.993711233139038,4.60207766507672,10.5032424926758,0.993772923946381
530,13.2102812708819,10.5175952911377,0.951223194599152,13.2102812708819,10.5227794647217,0.951310873031616
531,12.640814465581,10.5175952911377,0.988531112670898,12.640814465581,10.5227794647217,0.988539755344391
532,5.31962106228874,10.4569454193115,0.997635722160339,10.0760455239371,10.4938383102417,0.997644603252411
533,10.2905801608863,10.4760494232178,0.903448879718781,10.2905801608863,10.5129413604736,0.903870582580566
534,8.27006534680427,10.4469108581543,0.998468220233917,9.52388234279731,10.4921617507935,0.998475849628448
535,12.640814465581,10.5083980560303,0.933978676795959,12.640814465581,10.5555639266968,0.934342384338379
536,12.640814465581,10.5358715057373,0.997159242630005,12.640814465581,10.5830373764038,0.997170984745026
537,11.1674147354568,10.5260486602783,0.997969210147858,11.1674147354568,10.5732145309448,0.997975409030914
538,11.1892717251495,10.5396823883057,0.997464060783386,11.1892717251495,10.5725069046021,0.997474372386932
539,7.91344654300265,10.5497398376465,0.99560010433197,10.0384275590389,10.5967283248901,0.995611369609833
540,9.57616207378284,10.5464057922363,0.998309731483459,10.8356733586691,10.6017932891846,0.998316049575806
541,11.1276938329014,10.5715684890747,0.993591725826263,11.1276938329014,10.6403512954712,0.993560314178467
542,15.2759542544671,10.6076469421387,0.992974519729614,15.2759542544671,10.6764297485352,0.993015766143799
543,9.78697617789072,10.5984439849854,0.997766613960266,9.78697617789072,10.6672267913818,0.997778475284576
544,12.640814465581,10.6092472076416,0.997408926486969,12.640814465581,10.6672267913818,0.997419238090515
545,7.35339922628819,10.5807113647461,0.997787475585938,7.35339922628819,10.6482524871826,0.997799694538116
546,11.7771111488169,10.6011753082275,0.995699644088745,11.7771111488169,10.6858215332031,0.995717108249664
547,12.640814465581,10.6011753082275,0.991846680641174,12.640814465581,10.6966257095337,0.991864740848541
548,3.43173932013878,10.5397806167603,0.920096516609192,3.43173932013878,10.635232925415,0.920370578765869
549,9.53172383824682,10.5473604202271,0.990980803966522,7.0109952525554,10.6260061264038,0.99100399017334
550,9.6844441605312,10.5783386230469,0.998301088809967,6.75981124142126,10.637487411499,0.998308420181274
551,11.0448166151378,10.6144609451294,0.998259961605072,11.0448166151378,10.6819734573364,0.998266279697418
552,6.40500510965057,10.5805444717407,0.998471677303314,6.40500510965057,10.6679725646973,0.998478591442108
553,12.640814465581,10.5805444717407,0.993373036384583,10.6495842496802,10.6546983718872,0.993388772010803
554,3.48538781535348,10.5597333908081,0.998014688491821,3.48538781535348,10.6255502700806,0.998023152351379
555,15.6487570867363,10.6071710586548,0.996260941028595,15.6487570867363,10.6646289825439,0.99626487493515
556,8.49250417663138,10.5857391357422,0.992023110389709,8.49250417663138,10.6431970596313,0.992008209228516
557,9.69001444635862,10.5660667419434,0.99849545955658,7.39307652992414,10.608211517334,0.998502373695374
558,12.6425640335458,10.5636587142944,0.760509192943573,12.6425640335458,10.6058044433594,0.760527670383453
559,8.40671643502647,10.5354309082031,0.998530745506287,8.40671643502647,10.5775766372681,0.998538017272949
560,12.5515418068596,10.5308027267456,0.997882664203644,12.5515418068596,10.5729475021362,0.997891128063202
561,10.2894243048348,10.5155334472656,0.981692671775818,9.02807965243495,10.5492696762085,0.981770217418671
562,10.2983227969647,10.5119514465332,0.811693429946899,10.2983227969647,10.5456867218018,0.808580577373505
563,10.1448557680798,10.4666757583618,0.989156484603882,10.1448557680798,10.5004119873047,0.989159762859344
564,11.4926108968167,10.4495992660522,0.975930631160736,11.4926108968167,10.4833345413208,0.975914299488068
565,12.2694972053609,10.4410343170166,0.994258165359497,12.2694972053609,10.4747705459595,0.994277954101562
566,10.1205611526555,10.4852685928345,0.998497366905212,8.10771850213325,10.5055856704712,0.998503684997559
567,11.8925000817632,10.4893865585327,0.998170971870422,11.8925000817632,10.5097036361694,0.998180747032166
568,13.2846055787312,10.5164384841919,0.995340704917908,13.2846055787312,10.5233469009399,0.995353937149048
569,12.6873027014973,10.5174589157104,0.996857643127441,12.6873027014973,10.5327463150024,0.996863484382629
570,12.4145354122665,10.5609092712402,0.998087584972382,10.1798131490729,10.5612983703613,0.998074531555176
571,7.01079584714962,10.5173025131226,0.997868776321411,7.01079584714962,10.5176916122437,0.997877836227417
572,16.9362690110356,10.5616149902344,0.528810262680054,16.9362690110356,10.5705232620239,0.52546226978302
573,12.640814465581,10.5616149902344,0.98629355430603,10.5765656471604,10.5703401565552,0.986290037631989
574,13.3121515775621,10.5660905838013,0.998256742954254,13.3121515775621,10.5748157501221,0.998264253139496
575,11.4009087283623,10.5908622741699,0.998140573501587,11.4009087283623,10.5995874404907,0.998148202896118
576,10.0825478076961,10.5729951858521,0.998011350631714,10.0825478076961,10.5817193984985,0.998017311096191
577,11.9482176718987,10.5851345062256,0.99813973903656,11.1707148991226,10.5886754989624,0.9981449842453
578,13.0137545781646,10.5833282470703,0.998291790485382,10.7259033683479,10.5716171264648,0.998295247554779
579,13.5126406075295,10.6061477661133,0.906686365604401,11.4997979570073,10.5810174942017,0.905528903007507
580,10.1675190505069,10.5896577835083,0.998200178146362,10.1675190505069,10.564528465271,0.998205184936523
581,8.51985718872592,10.5595855712891,0.998104810714722,8.51985718872592,10.5344562530518,0.998108386993408
582,11.495702031769,10.5519514083862,0.998158276081085,8.56446683292983,10.5072803497314,0.998163044452667
583,5.47424617761436,10.4944801330566,0.967129230499268,5.47424617761436,10.4498090744019,0.967469274997711
584,13.2459044440514,10.5389375686646,0.996693849563599,13.2459044440514,10.4808750152588,0.996696472167969
585,12.8495498869235,10.5716361999512,0.993873596191406,12.8495498869235,10.5135746002197,0.993895828723907
586,8.83704259050559,10.585485458374,0.997392058372498,8.83704259050559,10.5408411026001,0.997398376464844
587,9.55894230282396,10.5649385452271,0.997627079486847,9.55894230282396,10.5202951431274,0.997631788253784
588,13.8648845287402,10.600754737854,0.997989892959595,13.8648845287402,10.5644502639771,0.997996389865875
589,11.5042415031029,10.6545715332031,0.998552024364471,11.5042415031029,10.6182670593262,0.998558342456818
590,12.7039770257536,10.6491813659668,0.472925096750259,14.4077386030361,10.6242351531982,0.470813900232315
591,12.640814465581,10.6459817886353,0.997162282466888,12.640814465581,10.6210355758667,0.997168123722076
592,11.0619769505665,10.6510725021362,0.998096406459808,11.0619769505665,10.626127243042,0.998099863529205
593,12.640814465581,10.6593389511108,0.99724942445755,12.640814465581,10.6499843597412,0.99725753068924
594,11.6513827387964,10.6766729354858,0.995154023170471,12.7095075562903,10.6504430770874,0.995163679122925
595,9.67717972934066,10.6776428222656,0.988620519638062,9.77667165620539,10.6604137420654,0.988594532012939
596,16.3703040480623,10.7709665298462,0.51493763923645,13.1259194058129,10.7321090698242,0.510544240474701
597,11.2078943341545,10.7532539367676,0.998401820659637,11.2078943341545,10.714394569397,0.998406946659088
598,12.5796281251154,10.7810487747192,0.9977947473526,9.25515823529286,10.720027923584,0.997800529003143
599,10.127395296647,10.7719259262085,0.997681140899658,10.127395296647,10.7109050750732,0.997689843177795
600,12.927917293396,10.7743759155273,0.997730314731598,12.927917293396,10.7133541107178,0.997734308242798
601,14.4171302550547,10.7862186431885,0.995904386043549,14.4171302550547,10.7251968383789,0.995903789997101
602,12.640814465581,10.7862186431885,0.989492535591125,12.640814465581,10.7251968383789,0.989478647708893
603,15.6487570867363,10.8193244934082,0.996247351169586,15.6487570867363,10.7452507019043,0.996247112751007
604,9.07461531559707,10.7955503463745,0.985060274600983,12.640814465581,10.7452507019043,0.985039234161377
605,11.0619769505665,10.7731828689575,0.998091757297516,11.0619769505665,10.722882270813,0.998094975948334
606,14.0187725126457,10.7923707962036,0.996946156024933,14.0187725126457,10.7420701980591,0.996961534023285
607,12.640814465581,10.7881383895874,0.997398257255554,12.640814465581,10.7378387451172,0.997406423091888
608,13.2102812708819,10.7827491760254,0.952029705047607,13.2102812708819,10.7324476242065,0.951979696750641
609,10.8356733586691,10.7882680892944,0.998298466205597,10.8356733586691,10.7463960647583,0.998302936553955
610,12.640814465581,10.8389568328857,0.997369289398193,12.640814465581,10.7970838546753,0.997375965118408
611,8.08510070779319,10.7988901138306,0.992623090744019,8.08510070779319,10.7570180892944,0.992636442184448
612,7.01079584714962,10.7733478546143,0.997861683368683,5.00441547588738,10.706109046936,0.997869968414307
613,12.640814465581,10.7709293365479,0.99479079246521,12.640814465581,10.7036895751953,0.994798183441162
614,2.37174812863176,10.7274494171143,0.966375589370728,2.37174812863176,10.6518135070801,0.966615676879883
615,9.69001444635862,10.7105369567871,0.99848735332489,9.69001444635862,10.6436805725098,0.998493313789368
616,8.40671643502647,10.672887802124,0.998526811599731,8.40671643502647,10.606032371521,0.998533487319946
617,11.6337565142467,10.6661739349365,0.999811708927155,11.6337565142467,10.5993185043335,0.999811947345734
618,12.5796281251154,10.6940727233887,0.997782409191132,12.5796281251154,10.6272163391113,0.99778950214386
619,3.43173932013878,10.6608819961548,0.919695317745209,3.43173932013878,10.5940265655518,0.919915854930878
620,13.0307830899784,10.6641931533813,0.967507362365723,13.0307830899784,10.597336769104,0.967317819595337
621,11.140573371043,10.6854991912842,0.998548448085785,11.140573371043,10.6186428070068,0.998555243015289
622,7.44010548876122,10.6597967147827,0.462537497282028,7.44010548876122,10.5929412841797,0.462012022733688
623,11.7771111488169,10.650839805603,0.995662868022919,11.7771111488169,10.5839824676514,0.995675265789032
624,3.8341221511719,10.6225004196167,0.996684849262238,5.89707953351141,10.5693960189819,0.996690154075623
625,13.5126406075295,10.6967725753784,0.90691065788269,13.5126406075295,10.6436681747437,0.905876159667969
626,14.0539998840528,10.7324151992798,0.997331261634827,14.0539998840528,10.6793127059937,0.997337758541107
627,10.1448557680798,10.7293529510498,0.989087700843811,10.1448557680798,10.662672996521,0.989087700843811
628,12.4867887821355,10.726541519165,0.998007237911224,12.4867887821355,10.6514701843262,0.998015284538269
629,5.47424617761436,10.6957702636719,0.966899812221527,5.47424617761436,10.6206998825073,0.967295408248901
630,12.640814465581,10.7163257598877,0.997228682041168,12.640814465581,10.6412544250488,0.997238874435425
631,7.69207745197923,10.7122106552124,0.593385875225067,7.69207745197923,10.6371383666992,0.596890509128571
632,8.51985718872592,10.7017440795898,0.998089134693146,8.51985718872592,10.626672744751,0.998095810413361
633,12.640814465581,10.7481603622437,0.993643045425415,12.640814465581,10.6597099304199,0.993650853633881
634,12.640814465581,10.7575120925903,0.99714320898056,12.640814465581,10.6690607070923,0.997150957584381
635,12.640814465581,10.804274559021,0.992644548416138,12.640814465581,10.7313594818115,0.992651402950287
636,10.2894243048348,10.7974977493286,0.981699109077454,10.2894243048348,10.7248344421387,0.981779873371124
637,11.7073128678847,10.823802947998,0.992293834686279,11.7073128678847,10.7594804763794,0.992324709892273
638,10.1205611526555,10.8132238388062,0.99848735332489,7.51603519467374,10.7315397262573,0.998494267463684
639,12.640814465581,10.8132238388062,0.934041380882263,12.640814465581,10.7315397262573,0.934347808361053
640,7.94459612405153,10.7787170410156,0.751356184482574,7.94459612405153,10.6970329284668,0.751742899417877
641,11.2747670356897,10.7696113586426,0.994926929473877,11.2747670356897,10.6879253387451,0.994933664798737
642,8.47757937549018,10.735782623291,0.994808256626129,6.38090490540766,10.6401195526123,0.994819581508636
643,9.52388234279731,10.7107582092285,0.998456120491028,9.52388234279731,10.6150951385498,0.998462915420532
644,12.640814465581,10.7107582092285,0.997131824493408,12.640814465581,10.6150951385498,0.99714332818985
645,12.2694972053609,10.7077016830444,0.994273126125336,12.2694972053609,10.61203956604,0.994291663169861
646,9.8853987786353,10.7078428268433,0.997947156429291,11.1674147354568,10.6207265853882,0.997952222824097
647,7.36498072426846,10.7176284790039,0.954266130924225,7.36498072426846,10.6305122375488,0.954841017723083
648,11.0448166151378,10.7423295974731,0.998246192932129,11.0448166151378,10.6390075683594,0.998251974582672
649,12.640814465581,10.7490434646606,0.997177124023438,12.640814465581,10.6457214355469,0.997185885906219
650,11.5042415031029,10.7388668060303,0.998548686504364,10.2019662756166,10.6268615722656,0.998556196689606
651,12.640814465581,10.7276916503906,0.988591969013214,12.640814465581,10.615686416626,0.988567233085632
652,12.640814465581,10.7369832992554,0.993461728096008,12.640814465581,10.624979019165,0.993488430976868
653,11.1276938329014,10.7528123855591,0.99377852678299,11.1276938329014,10.6408090591431,0.99374121427536
654,12.927917293396,10.7638349533081,0.997723758220673,12.927917293396,10.6518297195435,0.997729241847992
655,12.7627105536923,10.8092861175537,0.286964505910873,12.7627105536923,10.6972818374634,0.288225173950195
656,11.4926108968167,10.8252239227295,0.976122796535492,11.4926108968167,10.7132186889648,0.976088047027588
657,5.62645256712925,10.7784614562988,0.921873152256012,3.44981681315878,10.6519460678101,0.922039866447449
658,10.1675190505069,10.7619724273682,0.998199164867401,10.1675190505069,10.6354560852051,0.998205661773682
659,8.82209249151269,10.7678098678589,0.997638940811157,10.0760455239371,10.6496543884277,0.997646272182465
660,10.0897555859304,10.7518291473389,0.995793461799622,10.0897555859304,10.6336736679077,0.995805740356445
661,12.5604935673543,10.7280035018921,0.998366177082062,11.2869610371572,10.5988187789917,0.998371660709381
662,14.3170776728627,10.7522325515747,0.998514950275421,14.3170776728627,10.6099939346313,0.99852055311203
663,11.2078943341545,10.7704343795776,0.998391032218933,11.2078943341545,10.6281967163086,0.998397052288055
664,10.0384275590389,10.7688255310059,0.995541751384735,10.0384275590389,10.6265869140625,0.995548605918884
665,7.78465802764211,10.7344179153442,0.815226674079895,10.2983227969647,10.6089372634888,0.812331676483154
666,12.640814465581,10.7862796783447,0.995463311672211,12.640814465581,10.6441087722778,0.995479106903076
667,9.78697617789072,10.7664422988892,0.997747361660004,9.78697617789072,10.6242704391479,0.997758388519287
668,12.6873027014973,10.766752243042,0.996819734573364,12.6873027014973,10.6245813369751,0.996826589107513
669,14.1672020957257,10.8039608001709,0.998380780220032,14.1672020957257,10.661789894104,0.998385906219482
670,6.75981124142126,10.7647533416748,0.998281121253967,6.75981124142126,10.6225833892822,0.998287975788116
671,12.6425640335458,10.7994365692139,0.758341729640961,12.6425640335458,10.6902770996094,0.758405148983002
672,7.94641740325542,10.8274831771851,0.367360800504684,7.94641740325542,10.6937532424927,0.369253307580948
673,7.85763533731703,10.7895050048828,0.997053980827332,7.85763533731703,10.6557750701904,0.997059106826782
674,5.94490115228409,10.7778568267822,0.996875882148743,5.94490115228409,10.6441278457642,0.996885716915131
675,8.39492176331654,10.7605829238892,0.997979938983917,8.39492176331654,10.6268520355225,0.99799120426178
676,13.5517449785582,10.8068799972534,0.996754348278046,11.4441946870296,10.6507635116577,0.996765613555908
677,11.1088198387133,10.7990417480469,0.893929183483124,13.5543456766539,10.6592283248901,0.894848525524139
678,16.9362690110356,10.8276786804199,0.532178401947021,15.5657585935168,10.6787271499634,0.529159069061279
679,11.8003827184747,10.8696670532227,0.988508403301239,11.8003827184747,10.7267169952393,0.988498389720917
680,6.75504770413394,10.8266324996948,0.993543982505798,6.75504770413394,10.6836814880371,0.993610084056854
681,11.2955215311296,10.8176641464233,0.997568428516388,11.2955215311296,10.6747131347656,0.997583508491516
682,10.6236753495997,10.8530244827271,0.994418025016785,12.640814465581,10.6918115615845,0.994445562362671
683,12.640814465581,10.8686933517456,0.984236598014832,12.640814465581,10.707480430603,0.984214186668396
684,11.2381700233776,10.8884801864624,0.991434574127197,11.2381700233776,10.7189083099365,0.991475343704224
685,10.127395296647,10.8717231750488,0.997648179531097,7.24068884444889,10.6829080581665,0.997659206390381
686,12.640814465581,10.8717231750488,0.997088968753815,12.640814465581,10.6829080581665,0.997101604938507
687,3.48538781535348,10.8205099105835,0.997974216938019,3.48538781535348,10.6316947937012,0.997983813285828
688,8.70754127816963,10.8039655685425,0.998489379882812,8.70754127816963,10.6151494979858,0.998497247695923
689,13.2775236838877,10.8397254943848,0.997768044471741,13.2775236838877,10.6367435455322,0.997776806354523
690,12.5515418068596,10.8595609664917,0.997850775718689,12.5515418068596,10.6481819152832,0.997860491275787
691,8.29950722741364,10.8407068252563,0.995624005794525,12.6043178380923,10.6580276489258,0.995636761188507
692,12.640814465581,10.8231391906738,0.993266820907593,12.640814465581,10.6404590606689,0.993286430835724
693,18.8397235418973,10.8834915161133,0.976897358894348,18.8397235418973,10.7008104324341,0.976523697376251
694,10.986131997178,10.8724603652954,0.996858954429626,10.986131997178,10.6897802352905,0.99686986207962
695,10.0825478076961,10.8906545639038,0.997973740100861,10.0825478076961,10.7079734802246,0.997981905937195
696,10.3347574694801,10.8810386657715,0.993787944316864,10.5931424989058,10.700080871582,0.993817508220673
697,12.640814465581,10.8810386657715,0.986162066459656,12.640814465581,10.700080871582,0.986153841018677
698,13.3812483143625,10.9473686218262,0.998099386692047,12.0521702981836,10.7575492858887,0.998106718063354
699,11.2470898840048,10.9588041305542,0.998437583446503,11.2470898840048,10.7857904434204,0.998445093631744
700,12.2844755986624,10.9761381149292,0.999879956245422,9.87262547789007,10.8065433502197,0.999879598617554
701,10.2798140654626,10.9710388183594,0.998119413852692,10.2798140654626,10.8014440536499,0.998126327991486
702,10.1531320692098,10.9960260391235,0.998145818710327,10.1531320692098,10.8264303207397,0.998152792453766
703,8.41031569107231,10.9678220748901,0.996569275856018,6.27340708635528,10.7972555160522,0.99659675359726
704,9.86426004751032,11.010347366333,0.977018892765045,9.86426004751032,10.8397808074951,0.977000772953033
705,7.35339922628819,10.9550447463989,0.997751533985138,7.35339922628819,10.7844791412354,0.997763156890869
706,14.0950103149038,10.992395401001,0.998201251029968,14.0950103149038,10.8218297958374,0.99820864200592
707,11.9804597972803,11.0076656341553,0.996621131896973,13.2459044440514,10.8608484268188,0.996629893779755
708,8.06197780815262,10.9771280288696,0.995987713336945,10.0899293553398,10.8438301086426,0.995993852615356
709,10.9577913799925,10.9941349029541,0.989260911941528,12.2268769169157,10.8692989349365,0.989435136318207
710,12.640814465581,10.9947309494019,0.988381564617157,12.640814465581,10.86989402771,0.988389611244202
711,12.640814465581,11.0104064941406,0.997000873088837,12.640814465581,10.8939790725708,0.997013926506042
712,14.4077386030361,11.037802696228,0.472891926765442,14.4077386030361,10.9213752746582,0.470331996679306
713,11.8183788485509,11.0489597320557,0.99774581193924,13.1206540760372,10.9412126541138,0.997758269309998
714,13.2846055787312,11.0609064102173,0.99528557062149,13.2846055787312,10.9531593322754,0.995303988456726
715,11.495702031769,11.0557470321655,0.998133957386017,11.495702031769,10.9480009078979,0.998141407966614
716,11.3642540259251,11.0640382766724,0.995053470134735,12.6915791854837,10.9785594940186,0.995070338249207
717,13.3121515775621,11.0735025405884,0.998225390911102,13.3121515775621,10.9880237579346,0.998234629631042
718,2.98666216821106,11.0048503875732,0.99172580242157,5.03756664490296,10.9330453872681,0.991756677627563
719,11.8925000817632,10.9995517730713,0.998146057128906,11.8925000817632,10.9277458190918,0.998156249523163
720,13.2755975567899,11.0052919387817,0.998475253582001,12.0247754379895,10.9400453567505,0.998482167720795
721,15.2759542544671,11.0603933334351,0.99281233549118,14.0214035422432,10.9867839813232,0.99285626411438
722,13.0037696470855,11.0341768264771,0.998249471187592,13.0037696470855,10.9605665206909,0.998254954814911
723,12.4145354122665,11.0326681137085,0.998123705387115,12.4145354122665,10.9728193283081,0.998113632202148
724,12.640814465581,11.0281915664673,0.991713762283325,12.640814465581,10.9683437347412,0.991733908653259
725,12.640814465581,11.0364580154419,0.996770739555359,12.640814465581,10.9766092300415,0.996782898902893
726,12.5341918991572,11.0528030395508,0.998703241348267,12.5341918991572,10.9929542541504,0.998708724975586
727,11.1892717251495,11.0477428436279,0.997395992279053,11.1892717251495,10.9930782318115,0.997407376766205
728,6.40500510965057,11.0036840438843,0.998444020748138,6.40500510965057,10.9642715454102,0.998451471328735
729,10.2905801608863,10.9822044372559,0.904855310916901,10.2905801608863,10.9562101364136,0.905505478382111
730,7.42508597327614,10.963921546936,0.998201012611389,7.42508597327614,10.9379272460938,0.998210191726685
731,8.30939117324299,10.9625177383423,0.996360719203949,8.30939117324299,10.9365243911743,0.996376574039459
732,8.7532501137408,10.9442348480225,0.998179197311401,8.7532501137408,10.937783241272,0.998188197612762
733,10.3306277643024,10.9766101837158,0.990926861763,12.6154637005687,10.9853916168213,0.990953207015991
734,14.668540633661,10.9860954284668,0.512032508850098,16.3703040480623,11.0062208175659,0.507611572742462
735,11.0270651358479,10.9739456176758,0.995510578155518,11.0270651358479,10.9940710067749,0.995530068874359
736,13.8648845287402,11.0074644088745,0.997952461242676,13.8648845287402,11.0275897979736,0.997962236404419
737,6.25780178519759,10.9854564666748,0.9975705742836,9.55894230282396,11.0275897979736,0.997579634189606
738,9.10205549675197,10.9537038803101,0.995475471019745,9.10205549675197,10.9958372116089,0.995488464832306
739,8.49250417663138,10.9336252212524,0.991938292980194,8.49250417663138,10.9757595062256,0.991934299468994
740,11.4009087283623,10.9249382019043,0.998109579086304,11.4009087283623,10.9557132720947,0.99811989068985
741,10.0077358778169,10.9073848724365,0.998703598976135,10.0077358778169,10.9381589889526,0.998709440231323
742,8.83704259050559,10.8925523757935,0.99733978509903,7.58521633353487,10.9149808883667,0.997350096702576
743,13.0137545781646,10.8950386047363,0.998257339000702,13.0137545781646,10.9174671173096,0.998261868953705
744,10.3301594736225,10.88623046875,0.998217880725861,11.8694285351088,10.9118671417236,0.998225390911102
745,11.4741710954806,10.8982105255127,0.998256981372833,12.7279880914736,10.9315433502197,0.99826592206955
746,12.640814465581,10.8733472824097,0.99171257019043,12.640814465581,10.9283084869385,0.991734027862549
747,7.76152443731332,10.8503723144531,0.997911512851715,7.76152443731332,10.9053325653076,0.997924208641052
748,12.9457792603657,10.8528127670288,0.987341225147247,12.9457792603657,10.9299364089966,0.98734575510025
749,8.58593147939448,10.8425359725952,0.996176719665527,8.58593147939448,10.919659614563,0.996199429035187
750,7.68510847630908,10.8075847625732,0.998328506946564,7.68510847630908,10.884708404541,0.998335421085358
751,11.140573371043,10.785740852356,0.998527765274048,11.140573371043,10.8628644943237,0.998536467552185
752,10.7772178789706,10.7733173370361,0.99707293510437,12.640814465581,10.8628644943237,0.997088491916656
753,12.640814465581,10.7532634735107,0.997082531452179,12.640814465581,10.8428106307983,0.997098445892334
754,12.6873027014973,10.7773485183716,0.99676525592804,12.6873027014973,10.8431205749512,0.996776878833771
755,11.2381700233776,10.7785224914551,0.991430938243866,11.2381700233776,10.844295501709,0.991482138633728
756,7.35339922628819,10.7340869903564,0.997745215892792,7.35339922628819,10.7998600006104,0.997759342193604
757,10.0825478076961,10.7170324325562,0.997962474822998,10.0825478076961,10.7828054428101,0.997972548007965
758,11.2747670356897,10.7041292190552,0.994816362857819,11.2747670356897,10.7699022293091,0.994832158088684
759,11.6337565142467,10.7094478607178,0.999822676181793,11.6337565142467,10.7752227783203,0.999822795391083
760,11.2078943341545,10.6998958587646,0.99836403131485,9.95557421723179,10.7573213577271,0.998371779918671
761,12.7670542308173,10.7311096191406,0.996896147727966,14.0187725126457,10.7968778610229,0.996917128562927
762,10.2983227969647,10.753026008606,0.820827841758728,8.28031663127206,10.8187170028687,0.818099081516266
763,11.6889924307326,10.7466812133789,0.987316846847534,11.6871641385075,10.8123598098755,0.987322151660919
764,11.7073128678847,10.8089179992676,0.992114961147308,10.4266338292015,10.8660583496094,0.992161691188812
765,12.640814465581,10.8285903930664,0.992534875869751,12.640814465581,10.8857307434082,0.992551922798157
766,15.6487570867363,10.8768701553345,0.996196269989014,15.6487570867363,10.9340124130249,0.99620109796524
767,7.94641740325542,10.8522872924805,0.360946029424667,7.94641740325542,10.9094305038452,0.3630311191082
768,14.0950103149038,10.8623905181885,0.99820077419281,14.0950103149038,10.9195327758789,0.998209595680237
769,14.1672020957257,10.9339599609375,0.998357474803925,14.1672020957257,10.9911022186279,0.998364865779877
770,5.03756664490296,10.880672454834,0.99171245098114,5.03756664490296,10.9378137588501,0.991746008396149
771,3.27360207024894,10.8282260894775,0.966672360897064,5.47424617761436,10.9000377655029,0.967087268829346
772,12.640814465581,10.8628969192505,0.996767044067383,12.640814465581,10.9347095489502,0.996782064437866
773,8.41031569107231,10.8404512405396,0.99655944108963,8.41031569107231,10.9122638702393,0.996589779853821
774,12.7279880914736,10.8997440338135,0.998256742954254,12.7279880914736,10.957802772522,0.998266577720642
775,8.21121931027234,10.8644008636475,0.981579542160034,6.94246882066536,10.9140024185181,0.981679677963257
776,11.8925000817632,10.8499898910522,0.998145937919617,11.8925000817632,10.8995914459229,0.998155772686005
777,12.640814465581,10.8666305541992,0.991712212562561,11.0203040480623,10.9054279327393,0.991737425327301
778,7.44010548876122,10.832986831665,0.466281205415726,7.44010548876122,10.8717842102051,0.465556889772415
779,13.2846055787312,10.8850555419922,0.995308220386505,11.8375570249764,10.9142055511475,0.995325088500977
780,13.2102812708819,10.8888521194458,0.953291833400726,13.2102812708819,10.9180030822754,0.953296184539795
781,12.0265317743052,10.9177474975586,0.473436653614044,14.4077386030361,10.9627733230591,0.470446556806564
782,12.640814465581,10.9452199935913,0.994394421577454,12.640814465581,10.9902458190918,0.994425535202026
783,10.1531320692098,10.928635597229,0.998138189315796,10.1531320692098,10.9736614227295,0.998146653175354
784,12.640814465581,10.928635597229,0.988506555557251,12.640814465581,10.9736614227295,0.988483846187592
785,12.8495498869235,10.930027961731,0.993797361850739,10.8284366165529,10.9615783691406,0.993827164173126
786,9.8853987786353,10.9273347854614,0.997909367084503,11.1674147354568,10.9674320220947,0.997917354106903
787,8.47757937549018,10.9058036804199,0.994719624519348,8.47757937549018,10.9458999633789,0.994732856750488
788,13.0307830899784,10.9252042770386,0.967510938644409,11.327021512696,10.9713068008423,0.96731424331665
789,11.0270651358479,10.9144458770752,0.995507597923279,11.0270651358479,10.9605484008789,0.995524525642395
790,10.127395296647,10.9289970397949,0.997637152671814,10.127395296647,10.9751005172729,0.997649133205414
791,12.640814465581,10.9381055831909,0.996988713741302,10.5765656471604,10.9704465866089,0.997003138065338
792,8.49250417663138,10.9382047653198,0.991960942745209,8.49250417663138,10.9845237731934,0.991953074932098
793,12.2694972053609,10.9565086364746,0.994226396083832,12.2694972053609,11.0028276443481,0.9942427277565
794,10.986131997178,10.9454774856567,0.996837973594666,10.986131997178,10.9917964935303,0.99685150384903
795,7.42508597327614,10.9131813049316,0.998198568820953,7.42508597327614,10.9595012664795,0.998207569122314
796,9.55894230282396,10.9110050201416,0.997559428215027,8.30439159060006,10.9404144287109,0.997568547725677
797,10.0899293553398,10.9291715621948,0.995976865291595,8.82858470294,10.9501714706421,0.995981097221375
798,12.640814465581,10.9398107528687,0.984234750270844,12.640814465581,10.9608125686646,0.984204590320587
799,12.6154637005687,10.9396419525146,0.990947306156158,12.6154637005687,10.9606428146362,0.990968763828278
800,7.94459612405153,10.9159116744995,0.754162430763245,7.94459612405153,10.9455938339233,0.754356801509857
801,9.78697617789072,10.8968868255615,0.997714400291443,9.78697617789072,10.9265670776367,0.997727930545807
802,12.640814465581,10.8968868255615,0.984873175621033,12.640814465581,10.9265670776367,0.984867632389069
803,15.2759542544671,10.9245414733887,0.992804110050201,12.6458885717539,10.9366893768311,0.992843925952911
804,12.640814465581,10.9226264953613,0.997085988521576,12.640814465581,10.934775352478,0.99709939956665
805,12.640814465581,10.9218149185181,0.997312605381012,12.640814465581,10.9339628219604,0.99732506275177
806,12.640814465581,10.9294691085815,0.933834493160248,12.640814465581,10.9416179656982,0.934114933013916
807,11.0448166151378,10.9655904769897,0.998214960098267,11.0448166151378,10.9922513961792,0.998223006725311
808,16.3703040480623,11.0069437026978,0.510095238685608,16.3703040480623,11.0336017608643,0.506318330764771
809,8.58593147939448,11.0053691864014,0.996205031871796,8.58593147939448,11.0236682891846,0.996223926544189
810,13.1206540760372,11.0255746841431,0.997739315032959,13.1206540760372,11.0438737869263,0.997753202915192
811,5.50302744803092,10.9785242080688,0.99824845790863,6.75981124142126,11.013692855835,0.998257696628571
812,12.5796281251154,10.9669418334961,0.997741937637329,12.5796281251154,11.0021095275879,0.997750818729401
813,12.640814465581,10.9764938354492,0.991700232028961,12.640814465581,11.0116634368896,0.99172431230545
814,11.4009087283623,10.985577583313,0.99810117483139,7.17379062591438,10.9925651550293,0.998112082481384
815,11.5042415031029,11.0103750228882,0.998533844947815,11.5042415031029,11.0006055831909,0.998541831970215
816,13.2775236838877,11.0146198272705,0.997783124446869,13.2775236838877,11.0048503875732,0.997788906097412
817,10.1448557680798,11.0170049667358,0.988980054855347,10.1448557680798,11.0072364807129,0.988991737365723
818,12.5341918991572,11.0159845352173,0.99870491027832,12.5341918991572,11.00621509552,0.998709917068481
819,9.52388234279731,10.9850292205811,0.998431503772736,9.52388234279731,10.9752578735352,0.998439013957977
820,12.927917293396,11.0261507034302,0.997675478458405,12.927917293396,11.0163793563843,0.997683048248291
821,12.4888564687499,11.0251264572144,0.997384488582611,12.4888564687499,11.0153541564941,0.9973965883255
822,10.6828623672012,11.0433692932129,0.995394647121429,12.640814465581,11.0466499328613,0.995415687561035
823,9.81414158702933,11.0564117431641,0.997850298881531,12.5515418068596,11.0779447555542,0.997859060764313
824,10.6828623672012,11.0879983901978,0.986189544200897,12.640814465581,11.1225833892822,0.986175179481506
825,13.0037696470855,11.1187238693237,0.998242616653442,11.7514495301627,11.1449594497681,0.99824845790863
826,6.60258568985261,11.0723962783813,0.997012138366699,7.85763533731703,11.1210498809814,0.997018814086914
827,7.76152443731332,11.0500812530518,0.997899532318115,7.76152443731332,11.0824298858643,0.997911512851715
828,11.2955215311296,11.0124759674072,0.997550785541534,11.2955215311296,11.0539617538452,0.997565746307373
829,12.640814465581,11.0180797576904,0.99732780456543,12.640814465581,11.0595655441284,0.997341215610504
830,3.43173932013878,10.9959239959717,0.919749855995178,3.43173932013878,11.037410736084,0.919820368289948
831,10.2905801608863,10.9892244338989,0.906436920166016,10.2905801608863,11.0307102203369,0.906914174556732
832,10.0077358778169,10.9851179122925,0.998691856861115,7.39520959483851,10.9957399368286,0.998697221279144
833,16.9362690110356,11.0137538909912,0.534821689128876,16.9362690110356,11.0243768692017,0.53190666437149
834,5.89707953351141,10.9781465530396,0.996596038341522,4.61912798632419,10.9802494049072,0.996605157852173
835,12.640814465581,10.9949026107788,0.993331730365753,12.640814465581,11.0162487030029,0.993362903594971
836,5.84014835894605,10.9495639801025,0.997943937778473,8.39492176331654,10.9879426956177,0.99795663356781
837,10.5765656471604,10.9968395233154,0.997164070606232,12.640814465581,11.0489797592163,0.997178196907043
838,12.640814465581,11.0230617523193,0.988326966762543,10.8420820912112,11.0632104873657,0.988332092761993
839,11.495702031769,11.0111818313599,0.998126804828644,10.2370869099109,11.0429401397705,0.998133599758148
840,8.40671643502647,10.9835500717163,0.998504877090454,8.40671643502647,11.015308380127,0.998510777950287
841,12.640814465581,11.0124921798706,0.989358186721802,12.640814465581,11.015552520752,0.989341616630554
842,6.40500510965057,10.9709196090698,0.998434364795685,5.14549382476432,10.9655847549438,0.998440563678741
843,13.5543456766539,10.9356832504272,0.894287407398224,13.5543456766539,10.9303483963013,0.895264327526093
844,10.6495842496802,10.9334411621094,0.993513286113739,12.640814465581,10.9413785934448,0.993526458740234
845,12.6425640335458,10.9505081176758,0.753197133541107,12.6425640335458,10.9584455490112,0.753324031829834
846,13.8648845287402,10.9740419387817,0.997934579849243,13.8648845287402,10.9802570343018,0.997942268848419
847,14.0539998840528,10.9834623336792,0.997261166572571,14.0539998840528,10.9896793365479,0.997269332408905
848,10.7751449622322,10.9660892486572,0.99845826625824,13.2755975567899,10.9978351593018,0.998464345932007
849,10.8356733586691,10.9633455276489,0.998251616954803,9.57888652903601,10.9867134094238,0.998258292675018
850,8.08510070779319,10.9353494644165,0.992397129535675,8.08510070779319,10.974796295166,0.992425084114075
851,13.9695307326709,10.9599475860596,0.995002686977386,13.9695307326709,10.9993944168091,0.995017230510712
852,3.48538781535348,10.9154968261719,0.997944533824921,3.48538781535348,10.9549427032471,0.997955083847046
853,11.4926108968167,10.9360446929932,0.975782752037048,11.4926108968167,10.9897375106812,0.975730061531067
854,2.37174812863176,10.8860950469971,0.965736329555511,2.37174812863176,10.9397869110107,0.965978443622589
855,9.10205549675197,10.8977527618408,0.995449721813202,9.10205549675197,10.9514455795288,0.995459616184235
856,7.01079584714962,10.8505249023438,0.997813940048218,7.01079584714962,10.9042167663574,0.997825145721436
857,6.29987988835674,10.8126535415649,0.996320366859436,8.30939117324299,10.8713073730469,0.996336936950684
858,9.87262547789007,10.824725151062,0.999880433082581,12.2844755986624,10.8859367370605,0.999879837036133
859,5.94490115228409,10.7913055419922,0.996820688247681,5.94490115228409,10.8440570831299,0.996830761432648
860,12.4867887821355,10.7902803421021,0.997965216636658,12.4148491051988,10.8425512313843,0.997975051403046
861,10.1675190505069,10.7737903594971,0.998160779476166,10.1675190505069,10.8260622024536,0.99816483259201
862,10.7772178789706,10.749587059021,0.994631886482239,12.640814465581,10.8142824172974,0.99465149641037
863,8.51985718872592,10.727596282959,0.998042464256287,6.0784431096323,10.767333984375,0.998048663139343
864,12.1307564896648,10.7199039459229,0.998074412345886,13.3812483143625,10.7679786682129,0.998082041740417
865,13.3121515775621,10.7320146560669,0.99821138381958,13.3121515775621,10.7800874710083,0.998218715190887
866,12.6043178380923,10.7402811050415,0.995580017566681,8.28382117864374,10.7507028579712,0.99559360742569
867,13.5126406075295,10.7416181564331,0.906751573085785,13.5126406075295,10.7520389556885,0.905832409858704
868,7.68510847630908,10.7729406356812,0.998317956924438,7.68510847630908,10.7696905136108,0.998322904109955
869,10.49910956122,10.7636518478394,0.998323142528534,9.97334538045947,10.7568960189819,0.99832957983017
870,10.0760455239371,10.7423210144043,0.997603952884674,12.9308805791268,10.7629365921021,0.997610926628113
871,12.4145354122665,10.7232456207275,0.998152315616608,12.4145354122665,10.7522249221802,0.998143196105957
872,12.640814465581,10.7208251953125,0.99710351228714,12.640814465581,10.7498044967651,0.997117161750793
873,8.7532501137408,10.6964168548584,0.998160302639008,8.7532501137408,10.7253952026367,0.998169660568237
874,14.4171302550547,10.7082595825195,0.995813429355621,14.4171302550547,10.7372379302979,0.995816648006439
875,5.50482630137579,10.6606864929199,0.993402898311615,6.75504770413394,10.6979999542236,0.993470668792725
876,11.1276938329014,10.6513090133667,0.994010090827942,11.1276938329014,10.6886234283447,0.993954598903656
877,13.5517449785582,10.6670589447021,0.99673730134964,13.5517449785582,10.7043733596802,0.996744394302368
878,8.83704259050559,10.6832723617554,0.997303605079651,8.83704259050559,10.7205858230591,0.997313797473907
879,10.1205611526555,10.6821393966675,0.998452186584473,10.1205611526555,10.7194528579712,0.998459219932556
880,12.2268769169157,10.7141513824463,0.989266395568848,12.2268769169157,10.75146484375,0.989422619342804
881,10.9274011320988,10.7316036224365,0.988547801971436,11.8003827184747,10.7747383117676,0.988513290882111
882,18.8397235418973,10.7988471984863,0.978105008602142,18.8397235418973,10.8419818878174,0.977784872055054
883,12.640814465581,10.814248085022,0.993203043937683,10.5765656471604,10.8283882141113,0.993222713470459
884,10.2798140654626,10.7849903106689,0.998092949390411,10.2798140654626,10.7877855300903,0.998100578784943
885,13.2459044440514,10.799783706665,0.996617496013641,13.2459044440514,10.8025779724121,0.996620416641235
886,11.7771111488169,10.7858638763428,0.995537400245667,11.7771111488169,10.7886600494385,0.995554149150848
887,7.69207745197923,10.7954254150391,0.58871054649353,7.69207745197923,10.7762136459351,0.591981768608093
888,5.62645256712925,10.7722549438477,0.92067539691925,5.62645256712925,10.7530431747437,0.920791268348694
889,11.2470898840048,10.7906188964844,0.998428463935852,11.2470898840048,10.7714071273804,0.998434245586395
890,10.0897555859304,10.7818784713745,0.995656490325928,10.0897555859304,10.7626657485962,0.995669722557068
891,10.0384275590389,10.7820825576782,0.995410859584808,10.0384275590389,10.7628707885742,0.995414733886719
892,9.86426004751032,10.7889308929443,0.977306067943573,9.86426004751032,10.7780647277832,0.977203607559204
893,13.1206540760372,10.7896432876587,0.998191177845001,13.1206540760372,10.7787780761719,0.998197734355927
894,7.36498072426846,10.7698764801025,0.951775312423706,7.36498072426846,10.7487487792969,0.952317416667938
895,13.0137545781646,10.7801399230957,0.99822324514389,13.0137545781646,10.7506523132324,0.998225748538971
896,12.7627105536923,10.7809524536133,0.273408114910126,12.7627105536923,10.7514667510986,0.274669140577316
897,11.0619769505665,10.8029556274414,0.998027741909027,9.04864155914437,10.7600469589233,0.998032510280609
898,7.51177089194194,10.7667284011841,0.998439967632294,9.69001444635862,10.7383413314819,0.998445332050323
899,8.70754127816963,10.767539024353,0.998467266559601,8.70754127816963,10.7391519546509,0.998473823070526
900,14.3170776728627,10.8117523193359,0.998467981815338,11.4798414229224,10.7644500732422,0.998474538326263
901,10.0899293553398,10.8047485351562,0.995913207530975,10.0899293553398,10.7574443817139,0.995916306972504
902,10.8356733586691,10.8051385879517,0.998232960700989,10.8356733586691,10.7454099655151,0.998240232467651
903,5.03756664490296,10.7544498443604,0.991571664810181,5.03756664490296,10.6947221755981,0.991596519947052
904,12.6154637005687,10.7539710998535,0.990881443023682,10.1101396822605,10.6775417327881,0.990899562835693
905,10.6495842496802,10.7500467300415,0.997072577476501,12.640814465581,10.6868925094604,0.99708503484726
906,10.914595692491,10.7737894058228,0.989392757415771,12.2268769169157,10.7193822860718,0.989530265331268
907,5.47424617761436,10.7430667877197,0.966125428676605,3.30983395430691,10.6742305755615,0.966480374336243
908,3.43173932013878,10.6907796859741,0.91937518119812,3.43173932013878,10.6219444274902,0.919324994087219
909,12.4867887821355,10.6964664459229,0.997943818569183,12.4867887821355,10.627631187439,0.997953414916992
910,14.1672020957257,10.7161951065063,0.998321235179901,14.1672020957257,10.6557092666626,0.998327195644379
911,6.5096981803426,10.6744804382324,0.997866094112396,7.76152443731332,10.6139945983887,0.997877597808838
912,14.4171302550547,10.7019386291504,0.995786011219025,14.4171302550547,10.6549062728882,0.995783448219299
913,10.1675190505069,10.6917953491211,0.998149156570435,10.1675190505069,10.6447744369507,0.998153388500214
914,9.55894230282396,10.677472114563,0.997507572174072,8.30439159060006,10.6306276321411,0.997515797615051
915,10.6312193811459,10.6640748977661,0.75078421831131,12.6425640335458,10.6306390762329,0.750882923603058
916,10.5457704169741,10.6300554275513,0.99811977148056,11.8925000817632,10.6055974960327,0.998127043247223
917,12.7627105536923,10.6621646881104,0.271168053150177,12.7627105536923,10.6377048492432,0.272637516260147
918,13.0307830899784,10.6550703048706,0.967522621154785,13.0307830899784,10.6306104660034,0.967411160469055
919,10.4822793023749,10.6305027008057,0.995265960693359,13.2846055787312,10.6247262954712,0.995274305343628
920,10.2894243048348,10.6655158996582,0.981408894062042,10.2894243048348,10.6597385406494,0.981452941894531
921,11.495702031769,10.720329284668,0.998114228248596,7.9938205975212,10.6765356063843,0.998120009899139
922,7.35339922628819,10.6850805282593,0.997711539268494,7.35339922628819,10.6412868499756,0.997722566127777
923,9.78697617789072,10.6942577362061,0.997669994831085,9.78697617789072,10.6504640579224,0.997681617736816
924,13.5126406075295,10.6994886398315,0.906758487224579,13.5126406075295,10.6556949615479,0.905957579612732
925,10.0760455239371,10.7119207382202,0.997596204280853,10.0760455239371,10.6765851974487,0.99760228395462
926,12.640814465581,10.7169094085693,0.989278972148895,12.640814465581,10.6815748214722,0.989256918430328
927,9.98584990645485,10.6992101669312,0.991393446922302,11.2381700233776,10.6830263137817,0.99142199754715
928,13.1206540760372,10.7370796203613,0.998180389404297,13.1206540760372,10.7208967208862,0.998186647891998
929,10.2983227969647,10.7171716690063,0.828958213329315,7.5999506185029,10.6926460266113,0.82676774263382
930,12.9457792603657,10.7154083251953,0.987220466136932,12.9457792603657,10.6908836364746,0.987199902534485
931,8.08510070779319,10.6891307830811,0.992326021194458,8.08510070779319,10.6487321853638,0.99234938621521
932,11.1276938329014,10.6790437698364,0.994079828262329,11.1276938329014,10.6386442184448,0.994009017944336
933,6.75981124142126,10.6564226150513,0.998212218284607,6.75981124142126,10.6160221099854,0.998218715190887
934,12.640814465581,10.6564226150513,0.992423295974731,10.581004371696,10.6022901535034,0.992434024810791
935,15.2759542544671,10.6725988388062,0.992673933506012,13.0173225572771,10.6168823242188,0.992702841758728
936,7.94641740325542,10.6596717834473,0.351822972297668,7.94641740325542,10.5954093933105,0.354350328445435
937,12.5604935673543,10.6868915557861,0.998306751251221,11.232704826232,10.6137771606445,0.998311877250671
938,11.4009087283623,10.676025390625,0.998071372509003,11.4009087283623,10.6142702102661,0.998080611228943
939,11.7073128678847,10.6805610656738,0.991940796375275,10.4266338292015,10.6102666854858,0.991972208023071
940,12.6873027014973,10.6976270675659,0.996691823005676,8.66657411580583,10.6005277633667,0.996699273586273
941,12.5341918991572,10.6969156265259,0.998686134815216,12.5341918991572,10.613579750061,0.998690068721771
942,12.640814465581,10.724570274353,0.993446409702301,10.8420820912112,10.6292419433594,0.993456900119781
943,8.49250417663138,10.6993913650513,0.991931021213531,8.49250417663138,10.6040620803833,0.991910994052887
944,11.2078943341545,10.7008695602417,0.99832957983017,11.2078943341545,10.6055402755737,0.99833482503891
945,12.640814465581,10.7356405258179,0.995326042175293,12.640814465581,10.6403121948242,0.995344579219818
946,10.1531320692098,10.7396020889282,0.998102009296417,10.1531320692098,10.6526384353638,0.998109936714172
947,9.69001444635862,10.7369356155396,0.998433768749237,9.69001444635862,10.6583805084229,0.998439490795135
948,12.640814465581,10.7369356155396,0.996926844120026,12.640814465581,10.6583805084229,0.996940910816193
949,11.5968274669247,10.7301445007324,0.993742763996124,12.8495498869235,10.6599416732788,0.993761837482452
950,3.48538781535348,10.7004165649414,0.997917354106903,2.20470877667035,10.6216745376587,0.997926712036133
951,9.52388234279731,10.6986627578735,0.998402059078217,8.26750197153507,10.6115465164185,0.998408138751984
952,18.8397235418973,10.7399892807007,0.978823244571686,18.8397235418973,10.6528720855713,0.978524744510651
953,6.40500510965057,10.6808500289917,0.99841845035553,6.40500510965057,10.6112651824951,0.998423218727112
954,9.55753224091308,10.6602945327759,0.9955233335495,8.2887817513061,10.5822515487671,0.995536804199219
955,13.0037696470855,10.6627140045166,0.998208522796631,13.0037696470855,10.5846719741821,0.998212575912476
956,8.40671643502647,10.6344861984253,0.998497247695923,8.40671643502647,10.5564441680908,0.998501658439636
957,16.1144862974365,10.6682844161987,0.996599972248077,13.2459044440514,10.5711183547974,0.996601939201355
958,10.8420820912112,10.6314296722412,0.996690392494202,10.581004371696,10.5325231552124,0.996703565120697
959,10.7772178789706,10.6460380554199,0.993145704269409,9.2236197289375,10.5367736816406,0.993165194988251
960,16.9362690110356,10.6714763641357,0.53715306520462,16.9362690110356,10.5622119903564,0.534627020359039
961,8.51985718872592,10.6915884017944,0.998022079467773,8.51985718872592,10.5739450454712,0.99802702665329
962,10.127395296647,10.6752405166626,0.997590780258179,10.127395296647,10.5575981140137,0.997601449489594
963,7.44010548876122,10.6405687332153,0.469385832548141,7.44010548876122,10.5229253768921,0.468468368053436
964,12.640814465581,10.6488342285156,0.99701726436615,12.640814465581,10.5593729019165,0.997028648853302
965,12.640814465581,10.6564121246338,0.993270218372345,12.640814465581,10.5669507980347,0.993298351764679
966,12.640814465581,10.6521673202515,0.986042439937592,10.8420820912112,10.5507135391235,0.986008822917938
967,8.30939117324299,10.6399307250977,0.996269345283508,8.30939117324299,10.5384769439697,0.996284365653992
968,11.0448166151378,10.6300020217896,0.998173594474792,11.0448166151378,10.5285482406616,0.998179316520691
969,10.4205157387327,10.6359786987305,0.997818112373352,12.5515418068596,10.548731803894,0.99782383441925
970,13.3121515775621,10.6385412216187,0.9981968998909,13.3121515775621,10.5512943267822,0.998202443122864
971,13.2102812708819,10.6433506011963,0.955322086811066,13.2102812708819,10.5561037063599,0.955165386199951
972,10.986131997178,10.6453723907471,0.996761918067932,10.986131997178,10.5450716018677,0.996772110462189
973,12.640814465581,10.6642169952393,0.994284689426422,12.640814465581,10.5456676483154,0.994311451911926
974,12.640814465581,10.6772689819336,0.997282981872559,12.640814465581,10.5456676483154,0.997294366359711
975,11.6049133433501,10.6679439544678,0.47122123837471,14.4077386030361,10.5633754730225,0.468465119600296
976,10.0897555859304,10.6911916732788,0.995606601238251,8.83893346713001,10.569917678833,0.995618104934692
977,14.5811270786123,10.7366552352905,0.998241782188416,13.484013295515,10.6080675125122,0.998246550559998
978,14.0187725126457,10.754810333252,0.996843457221985,14.0187725126457,10.6262235641479,0.996859669685364
979,8.83704259050559,10.7294511795044,0.997268319129944,8.83704259050559,10.6008644104004,0.997277081012726
980,12.640814465581,10.7908458709717,0.933419466018677,10.6495842496802,10.6489839553833,0.93361759185791
981,10.0077358778169,10.7889595031738,0.998677313327789,10.0077358778169,10.6470975875854,0.998681366443634
982,15.6487570867363,10.826566696167,0.99616664648056,13.3095971240467,10.6865262985229,0.996160507202148
983,8.41031569107231,10.7697277069092,0.99648654460907,8.41031569107231,10.6296873092651,0.996510565280914
984,12.640814465581,10.8146858215332,0.988253474235535,12.640814465581,10.6831655502319,0.988249182701111
985,12.640814465581,10.8146858215332,0.997122228145599,11.0203040480623,10.6723613739014,0.997134566307068
986,7.01079584714962,10.8224906921387,0.99779224395752,7.01079584714962,10.6631345748901,0.997802197933197
987,8.82324846355698,10.8108005523682,0.99471127986908,11.2747670356897,10.6540279388428,0.994720935821533
988,5.89707953351141,10.7658424377441,0.996542274951935,4.63705635713077,10.6126613616943,0.996549010276794
989,8.25640484161899,10.7442474365234,0.92047256231308,5.62645256712925,10.5819234848022,0.920478105545044
990,12.640814465581,10.7724752426147,0.99455463886261,12.640814465581,10.6101503372192,0.994573652744293
991,5.94490115228409,10.7278356552124,0.996775805950165,5.94490115228409,10.5655107498169,0.996783018112183
992,8.70754127816963,10.7431869506836,0.998457789421082,8.70754127816963,10.5892581939697,0.99846351146698
993,12.640814465581,10.737096786499,0.988434791564941,12.640814465581,10.5831670761108,0.988388895988464
994,12.4888564687499,10.7493572235107,0.997323334217072,12.4888564687499,10.5821542739868,0.997333645820618
995,13.0233764883694,10.751895904541,0.998457074165344,14.3170776728627,10.5933170318604,0.998462319374084
996,10.0384275590389,10.7263860702515,0.995342135429382,10.0384275590389,10.5678071975708,0.995342969894409
997,10.1448557680798,10.7003259658813,0.988808333873749,10.1448557680798,10.541748046875,0.988806128501892
998,7.85763533731703,10.6808757781982,0.996936917304993,7.85763533731703,10.5056285858154,0.996939420700073
999,6.75504770413394,10.6536712646484,0.993253409862518,5.5019925041671,10.4784488677979,0.993299841880798
1000,7.58615793695571,10.6503448486328,0.977166831493378,9.86426004751032,10.490309715271,0.977043807506561
1001,13.0137545781646,10.6439733505249,0.998192369937897,13.0137545781646,10.4839372634888,0.998190462589264
1002,12.640814465581,10.7050094604492,0.997231066226959,12.640814465581,10.5449743270874,0.997236967086792
1003,13.1206540760372,10.7158622741699,0.997681021690369,13.1206540760372,10.5558271408081,0.997687697410583
1004,11.5042415031029,10.7767467498779,0.998502731323242,11.5042415031029,10.6167106628418,0.998505234718323
1005,13.5517449785582,10.8064107894897,0.996699512004852,12.1297542935833,10.6368951797485,0.996697068214417
1006,11.4926108968167,10.8362894058228,0.97585391998291,11.4926108968167,10.6667737960815,0.975744247436523
1007,10.6828623672012,10.8655090332031,0.991483509540558,12.640814465581,10.695650100708,0.99148952960968
1008,8.47815456167661,10.8562126159668,0.997845411300659,11.1674147354568,10.6882028579712,0.99784791469574
1009,13.3812483143625,10.9057893753052,0.998030841350555,13.3812483143625,10.7377786636353,0.998033344745636
1010,11.140573371043,10.8968143463135,0.998488426208496,11.140573371043,10.729284286499,0.998491287231445
1011,7.36498072426846,10.8781299591064,0.949986279010773,9.98934730845729,10.7280969619751,0.950445592403412
1012,13.2775236838877,10.8947992324829,0.997735381126404,13.2775236838877,10.7323417663574,0.997735142707825
1013,12.640814465581,10.9222717285156,0.99150687456131,10.8420820912112,10.7640991210938,0.991511642932892
1014,11.2470898840048,10.9163808822632,0.998402178287506,11.2470898840048,10.749870300293,0.998405516147614
1015,8.86674415666242,10.8867444992065,0.9984210729599,8.86674415666242,10.7202348709106,0.998425006866455
1016,16.3703040480623,10.9118509292603,0.504234194755554,16.3703040480623,10.7741451263428,0.501765668392181
1017,12.640814465581,10.9060392379761,0.996986329555511,12.640814465581,10.7683334350586,0.996994972229004
1018,8.81199593453031,10.9135513305664,0.997994184494019,11.0619769505665,10.7908449172974,0.997995615005493
1019,11.7771111488169,10.9220714569092,0.995421350002289,11.7771111488169,10.8028697967529,0.995428800582886
1020,10.0825478076961,10.9221143722534,0.997895002365112,10.0825478076961,10.7838802337646,0.997898936271667
1021,12.5796281251154,10.9232149124146,0.997657060623169,12.5796281251154,10.7849807739258,0.997658133506775
1022,12.2599244482239,10.9206762313843,0.896017372608185,12.2497966519159,10.782374382019,0.89679741859436
1023,12.640814465581,10.9465923309326,0.984013080596924,12.640814465581,10.8082914352417,0.983943223953247
1024,11.6337565142467,10.9280366897583,0.999838948249817,11.6337565142467,10.7897348403931,0.999837636947632
1025,14.0539998840528,10.985032081604,0.997181296348572,12.8022816022244,10.8300504684448,0.99718189239502
1026,12.640814465581,10.9951200485229,0.996987640857697,10.5765656471604,10.8263750076294,0.996996879577637
1027,12.640814465581,10.9890460968018,0.984584867954254,12.640814465581,10.8203029632568,0.984546065330505
1028,8.7532501137408,10.9884872436523,0.998121321201324,7.50275828904316,10.8114080429077,0.998125493526459
1029,12.4145354122665,11.0037803649902,0.998177409172058,11.118254717993,10.8180589675903,0.998175859451294
1030,10.2798140654626,10.9907999038696,0.998051047325134,10.2798140654626,10.8050785064697,0.998054146766663
1031,8.47757937549018,10.9744672775269,0.994601964950562,8.47757937549018,10.7829265594482,0.994601011276245
1032,8.39492176331654,10.9048357009888,0.99789559841156,8.39492176331654,10.7132940292358,0.997902035713196
1033,7.69207745197923,10.871844291687,0.582538962364197,6.43692353784781,10.6856966018677,0.585614860057831
1034,9.10205549675197,10.86399269104,0.995400130748749,9.10205549675197,10.6778450012207,0.99540114402771
1035,11.0270651358479,10.8492012023926,0.995444536209106,11.0270651358479,10.6630525588989,0.99544757604599
1036,7.42508597327614,10.8201875686646,0.998149394989014,7.42508597327614,10.6340398788452,0.998153507709503
1037,10.2905801608863,10.8375101089478,0.909198760986328,7.64611217183291,10.6337337493896,0.909202039241791
1038,8.58593147939448,10.8572406768799,0.996180057525635,8.58593147939448,10.6534633636475,0.996183335781097
1039,13.2755975567899,10.8707637786865,0.998427033424377,13.2755975567899,10.6669855117798,0.998428463935852
1040,5.12320925934976,10.8376531600952,0.965381801128387,5.12320925934976,10.6338748931885,0.965551733970642
1041,7.32474786718716,10.819561958313,0.997895359992981,13.8648845287402,10.6593866348267,0.997896552085876
1042,11.2955215311296,10.8291044235229,0.997501909732819,11.2955215311296,10.668927192688,0.997509002685547
1043,11.5320014964482,10.8185129165649,0.997601091861725,10.7288951711127,10.6529817581177,0.997598946094513
1044,12.2844755986624,10.8513097763062,0.99988055229187,10.9647940694256,10.67698097229,0.999880313873291
1045,10.5417675966166,10.8348293304443,0.98850154876709,11.8003827184747,10.6688919067383,0.988423764705658
1046,7.68510847630908,10.8009786605835,0.99828976392746,5.6764933544509,10.6216506958008,0.998288452625275
1047,10.7284790838092,10.7987546920776,0.998152196407318,14.0950103149038,10.6552925109863,0.998151242733002
1048,5.81330442226771,10.7874317169189,0.757853984832764,7.94459612405153,10.6436576843262,0.757145166397095
1049,13.9695307326709,10.8225126266479,0.994879603385925,12.7095075562903,10.6703367233276,0.994873940944672
1050,12.2694972053609,10.8088617324829,0.994152247905731,12.2694972053609,10.6756010055542,0.994143426418304
1051,13.1206540760372,10.829065322876,0.998154819011688,13.1206540760372,10.6958055496216,0.998155415058136
1052,12.7627105536923,10.8419132232666,0.264883011579514,12.7627105536923,10.7086524963379,0.265563040971756
1053,12.640814465581,10.8926019668579,0.99724555015564,12.640814465581,10.7593412399292,0.997250974178314
1054,11.0270651358479,10.8820123672485,0.995452702045441,11.0270651358479,10.765453338623,0.995451986789703
1055,7.85763533731703,10.8633995056152,0.996913433074951,7.85763533731703,10.7335662841797,0.99690979719162
1056,7.42508597327614,10.8401355743408,0.998143792152405,7.42508597327614,10.7015533447266,0.998146295547485
1057,12.640814465581,10.8879127502441,0.994207262992859,10.8420820912112,10.7517681121826,0.994221329689026
1058,14.0187725126457,10.9584932327271,0.996806621551514,14.0187725126457,10.8223485946655,0.996813952922821
1059,3.48538781535348,10.8984842300415,0.997890293598175,3.48538781535348,10.7623405456543,0.997893273830414
1060,12.927917293396,10.8902225494385,0.997592747211456,12.927917293396,10.754077911377,0.997590899467468
1061,5.89707953351141,10.8861379623413,0.996487975120544,4.6292527463895,10.7331962585449,0.9964839220047
1062,9.52388234279731,10.8535165786743,0.998383402824402,9.52388234279731,10.7005748748779,0.998385071754456
1063,12.640814465581,10.870005607605,0.988362491130829,10.7772178789706,10.7046394348145,0.988300085067749
1064,12.2268769169157,10.8877925872803,0.989468276500702,12.2268769169157,10.7307891845703,0.989581823348999
1065,12.640814465581,10.9011888504028,0.985955059528351,12.640814465581,10.7307767868042,0.985895335674286
1066,8.08510070779319,10.8847846984863,0.992177188396454,8.08510070779319,10.7053937911987,0.992179393768311
1067,8.58593147939448,10.8569383621216,0.996172368526459,8.58593147939448,10.6775484085083,0.996171295642853
1068,6.37343066210792,10.8125562667847,0.965233743190765,5.12320925934976,10.6248321533203,0.96537047624588
1069,9.55894230282396,10.8064002990723,0.997464776039124,9.55894230282396,10.5999946594238,0.997463822364807
1070,15.2759542544671,10.8396444320679,0.992528080940247,14.0221372584741,10.6248798370361,0.992536962032318
1071,11.8003827184747,10.8416757583618,0.988465785980225,11.8003827184747,10.6502561569214,0.988386452198029
1072,12.640814465581,10.8769254684448,0.989184141159058,12.640814465581,10.6855058670044,0.989133298397064
1073,13.9695307326709,10.9048099517822,0.994861900806427,13.9695307326709,10.7133893966675,0.994855523109436
1074,12.8495498869235,10.9003887176514,0.993680715560913,11.5978316050951,10.7006244659424,0.993680953979492
1075,12.2694972053609,10.9150123596191,0.994145274162292,12.2694972053609,10.7152471542358,0.994137048721313
1076,11.2955215311296,10.9060430526733,0.997487783432007,11.2955215311296,10.7062788009644,0.997494697570801
1077,10.6828623672012,10.9106903076172,0.993183076381683,12.640814465581,10.7156295776367,0.993196368217468
1078,12.2844755986624,10.9051151275635,0.999880313873291,12.2844755986624,10.7100553512573,0.999880075454712
1079,12.640814465581,10.9207315444946,0.997073173522949,12.640814465581,10.7436609268188,0.9970782995224
1080,12.640814465581,10.9186983108521,0.993328928947449,12.640814465581,10.7416276931763,0.993321239948273
1081,8.7532501137408,10.923152923584,0.998114585876465,11.1459402106434,10.7620334625244,0.998116731643677
1082,10.0760455239371,10.9161415100098,0.997574985027313,10.0760455239371,10.7550230026245,0.997574031352997
1083,12.4145354122665,10.9538402557373,0.998167514801025,12.4145354122665,10.7927207946777,0.998174786567688
1084,12.640814465581,10.9538402557373,0.991470992565155,10.5765656471604,10.7926912307739,0.991462647914886
1085,5.47424617761436,10.8884954452515,0.96555083990097,5.47424617761436,10.7424039840698,0.965814054012299
1086,10.127395296647,10.9030342102051,0.997557759284973,10.127395296647,10.7569437026978,0.997559785842896
1087,12.640814465581,10.9035701751709,0.992300152778625,12.640814465581,10.7663307189941,0.992288410663605
1088,8.83704259050559,10.8864774703979,0.997225821018219,8.83704259050559,10.7492380142212,0.997223854064941
1089,12.640814465581,10.8927011489868,0.99702125787735,12.640814465581,10.7639999389648,0.997022926807404
1090,7.44010548876122,10.8577194213867,0.472997397184372,7.44010548876122,10.755823135376,0.472078263759613
1091,10.2905801608863,10.8427629470825,0.909583926200867,10.2905801608863,10.7408657073975,0.90935754776001
1092,13.5517449785582,10.8488349914551,0.996696949005127,10.9411578023552,10.7415266036987,0.996687710285187
1093,6.40500510965057,10.8349189758301,0.99839836359024,4.39366045725072,10.7142009735107,0.998396933078766
1094,12.640814465581,10.8444719314575,0.988119184970856,12.640814465581,10.7237539291382,0.98808228969574
1095,13.5543456766539,10.8505620956421,0.895865440368652,13.5543456766539,10.7298440933228,0.896718442440033
1096,8.51985718872592,10.8396739959717,0.997989416122437,8.51985718872592,10.718955039978,0.997985601425171
1097,8.30939117324299,10.8304691314697,0.996211767196655,8.30939117324299,10.7097511291504,0.996213853359222
1098,13.5126406075295,10.8362817764282,0.905836820602417,13.5126406075295,10.7155628204346,0.905401766300201
1099,11.140573371043,10.8332395553589,0.998481929302216,11.140573371043,10.7041711807251,0.998482167720795
1100,7.35339922628819,10.8590278625488,0.997681736946106,7.35339922628819,10.7384948730469,0.997684240341187
1101,11.0619769505665,10.8692817687988,0.997988104820251,8.81199593453031,10.7421255111694,0.997985363006592
1102,11.1276938329014,10.8178682327271,0.99430388212204,11.1276938329014,10.6907119750977,0.994229674339294
1103,13.2846055787312,10.8637313842773,0.99524199962616,10.2805318817885,10.7165489196777,0.995230734348297
1104,12.640814465581,10.8842859268188,0.99446976184845,12.640814465581,10.7455625534058,0.994471311569214
1105,11.2470898840048,10.8725748062134,0.998400151729584,11.2470898840048,10.733850479126,0.998399674892426
1106,9.55753224091308,10.8802461624146,0.995464384555817,9.55753224091308,10.7415227890015,0.995462000370026
1107,6.12247793911552,10.8136339187622,0.994590759277344,8.47757937549018,10.7097339630127,0.994579315185547
1108,8.60646288036066,10.7987298965454,0.996736228466034,6.15945865942324,10.6802558898926,0.996730923652649
1109,8.49250417663138,10.7834987640381,0.991824328899384,6.09668713485236,10.6594104766846,0.991772711277008
1110,3.43173932013878,10.6934680938721,0.919086575508118,3.43173932013878,10.5693807601929,0.918753921985626
1111,12.9457792603657,10.7229747772217,0.987039387226105,10.7147758846305,10.5840129852295,0.98696357011795
1112,14.0539998840528,10.7491521835327,0.997169315814972,14.0539998840528,10.6101903915405,0.997163355350494
1113,10.1675190505069,10.7673349380493,0.998129308223724,8.00059823849248,10.6139268875122,0.998126089572906
1114,10.986131997178,10.7563037872314,0.996701061725616,10.986131997178,10.6028957366943,0.996699273586273
1115,9.69001444635862,10.7366313934326,0.998406946659088,9.69001444635862,10.5832242965698,0.998405396938324
