EpisodeIndex,DQNEpisodeReward,DQNAverageReward,DQNEpisodeQ0,DDQNEpisodeReward,DDQNAverageReward,DDQNEpisodeQ0
1,-16.9836734693878,-16.9836730957031,0.204490289092064,-20.6138775510204,-20.6138782501221,0.204490289092064
2,-15.9222222222222,-16.4529476165771,0.492852360010147,-21.082962962963,-20.8484191894531,-0.68141382932663
3,-17.6950724637681,-16.8669891357422,0.163459986448288,-17.9089855072464,-19.8686084747314,0.93209034204483
4,-16.7807692307692,-16.8454341888428,0.465114086866379,-9.32115384615384,-17.2317447662354,1.24618792533875
5,-17.88,-17.0523471832275,0.832710325717926,-21.96,-18.1773948669434,1.16730070114136
6,-14.1682840236686,-16.5716686248779,1.51993429660797,-18.5884023668639,-18.2458953857422,1.12860083580017
7,-14.1237410071942,-16.2219657897949,5.44856691360474,-18.4915107913669,-18.28098487854,1.22031009197235
8,-13.51,-15.8829708099365,0.814944088459015,-22,-18.7458610534668,0.0403814166784286
9,-9.048,-15.1235303878784,0.96650767326355,-22.568,-19.1705436706543,-0.287125289440155
10,-12.1682840236686,-14.8280048370361,1.07140028476715,-11.76,-18.4294891357422,0.798228740692139
11,-18.5713580246914,-15.1683101654053,0.817939519882202,-17.7711934156379,-18.3696441650391,1.06190013885498
12,-15.8,-15.2209510803223,0.573746919631958,-13.76,-17.9855060577393,1.09072017669678
13,-21.96,-15.7393388748169,0.847267806529999,-20.7852482269504,-18.200870513916,1.00683116912842
14,-13.1891891891892,-15.5571851730347,5.74646091461182,-19.0421621621622,-18.26096534729,2.48615336418152
15,-13.4991304347826,-15.4199819564819,1.22511076927185,-16.814347826087,-18.1645221710205,0.0751123279333115
16,-13.76,-15.3162326812744,1.15029287338257,-19.92,-18.2742404937744,0.189937770366669
17,-19.92,-15.587043762207,11.3751258850098,-10.5763730569948,-17.8214244842529,1.14438688755035
18,-14.3314285714286,-15.5172863006592,1.17863714694977,-18.9665800865801,-17.8850440979004,0.758915543556213
19,-19.92,-15.7490072250366,1.05900549888611,-19.92,-17.9921474456787,0.684599578380585
20,-19.96,-15.9595565795898,0.871478796005249,-16.0018497109827,-17.8926334381104,-0.0716088712215424
21,-19.92,-16.1481494903564,0.792010366916656,-17.4812556053812,-17.8730430603027,-0.0809566974639893
22,-21.5683790523691,-16.3945236206055,0.341723054647446,-16.3360598503741,-17.8031806945801,0.193751305341721
23,-14.1265158371041,-16.2959156036377,1.19765388965607,-21.96,-17.9839115142822,0.651719510555267
24,-16.4484337349398,-16.3022708892822,0.728831052780151,-10.5024096385542,-17.6721820831299,0.139444679021835
25,-21.0125925925926,-16.4906845092773,0.66631680727005,-18.8214814814815,-17.7181549072266,0.667619466781616
26,-20.535,-16.6462326049805,-0.023922972381115,-18.175,-17.735725402832,-0.0393097437918186
27,-22.1994957983193,-16.8519115447998,-0.0312917083501816,-20.2603361344538,-17.8292274475098,0.426425755023956
28,-15.72,-16.8114833831787,1.09948813915253,-19.92,-17.9038982391357,0.32411116361618
29,-16.4111111111111,-16.797679901123,1.17361378669739,-18.5719191919192,-17.9269351959229,0.472834348678589
30,-16.6558904109589,-16.7929515838623,0.572226762771606,-18.5117808219178,-17.9464302062988,0.136098027229309
31,-16.5643708609272,-16.7855796813965,0.600542724132538,-18.0154966887417,-17.948657989502,0.515013098716736
32,-16.6739222614841,-16.7820911407471,1.14606833457947,-22.543038869258,-18.0922317504883,0.506383299827576
33,-16.5050246305419,-16.7736949920654,6.45550012588501,-16.5450246305419,-18.0453472137451,0.302870690822601
34,-15.84,-16.7462310791016,1.10450482368469,-19.92,-18.1004829406738,1.01755666732788
35,-15.9357142857143,-16.7230739593506,1.03348445892334,-16.7114285714286,-18.0607967376709,1.02920210361481
36,-11.64,-16.5818786621094,1.24086093902588,-15.84,-17.9991073608398,0.967989206314087
37,-11.4390361445783,-16.4428825378418,1.085688829422,-2.99807228915663,-17.5936737060547,0.863104164600372
38,-20.4109747292419,-16.547306060791,0.64976167678833,-16.7241877256318,-17.5707950592041,0.797877311706543
39,-20.1798870056497,-16.6404495239258,4.38668441772461,-10.3670056497175,-17.386079788208,1.31117117404938
40,-9.10389380530973,-16.4520359039307,2.86950039863586,-20.278407079646,-17.4583873748779,0.688205122947693
41,-15.84,-16.4371089935303,1.07564532756805,-19.92,-17.5184288024902,1.10762500762939
42,-9.32834645669291,-16.2678508758545,0.997250616550446,-11.3683464566929,-17.3719959259033,0.79153847694397
43,-18.1767346938775,-16.3122444152832,1.05140542984009,-21.96,-17.4786949157715,0.638337016105652
44,-16.34,-16.312873840332,1.24638247489929,-14.43,-17.4094066619873,0.600972473621368
45,-9.64,-16.164587020874,1.35292172431946,-15.84,-17.3745307922363,1.12672173976898
46,-20.4446913580247,-16.2576332092285,4.22138977050781,-19.0651851851852,-17.411283493042,0.979428052902222
47,-15.6,-16.2436428070068,1.71929681301117,-17.0021621621622,-17.4025802612305,0.609619438648224
48,-15.6161194029851,-16.2305698394775,1.58179819583893,-13.1375124378109,-17.3137264251709,0.303553521633148
49,-17.76,-16.2617816925049,1.24533414840698,-16.3873891625616,-17.2948188781738,0.400623023509979
50,-10.1825,-16.1401958465576,1.18896687030792,-13.51375,-17.2192001342773,0.248135417699814
51,-17.0622222222222,-16.158275604248,3.67747449874878,-11.7766183574879,-17.1124820709229,0.186234265565872
52,-20.8613793103448,-16.2487182617188,0.955726444721222,-15.8841379310345,-17.0888595581055,-0.00516887009143829
53,-19.88,-16.3172340393066,0.706154406070709,-12.6438554216867,-17.0049896240234,0.384012162685394
54,-14.4363636363636,-16.2824020385742,1.07361149787903,-24,-17.1345272064209,0.479396730661392
55,-15.7273607748184,-16.272310256958,3.84662985801697,-14.8084261501211,-17.0922355651855,-0.000722795724868774
56,-18.9873985680191,-16.3207950592041,1.26738941669464,-24,-17.2155876159668,-0.293698042631149
57,-18.6076422764228,-16.3609142303467,0.952491700649261,-18.7214634146341,-17.2420063018799,-0.511121451854706
58,-16.3751724137931,-16.3611602783203,0.957593381404877,-15.8,-17.2171440124512,0.379171967506409
59,-15.2806201550388,-16.342845916748,1.00066256523132,-21.3696124031008,-17.2875232696533,-0.401983618736267
60,-15.4392452830189,-16.3277854919434,6.78608369827271,-19.92,-17.3313980102539,-0.410337686538696
61,-13.8,-16.2863464355469,1.03972470760345,-13.76,-17.2728519439697,0.106632649898529
62,-11.3118146718147,-16.206111907959,0.741419792175293,-19.4180694980695,-17.3074512481689,0.319691479206085
63,-7.64,-16.0701427459717,1.08176910877228,-9.48,-17.1832084655762,0.51335334777832
64,-15.84,-16.0665473937988,0.837821960449219,-19.92,-17.2259712219238,1.18610990047455
65,-18.1682051282051,-16.0988807678223,1.3145809173584,-18.3671794871795,-17.2435283660889,0.61176598072052
66,-13.4170954356846,-16.0582466125488,1.2610799074173,-21.96,-17.3149890899658,0.162845835089684
67,-11.68,-15.9928998947144,0.852916657924652,-15.84,-17.2929744720459,0.659029304981232
68,-18.2389743589744,-16.0259304046631,0.872879922389984,-9.68,-17.1810188293457,0.988542437553406
69,-22.9364705882353,-16.1260833740234,0.928458034992218,-17.9082352941176,-17.1915588378906,0.533043265342712
70,-16.4752941176471,-16.1310729980469,7.86249256134033,-18.5270588235294,-17.2106380462646,1.58713757991791
71,-15.7372727272727,-16.125524520874,0.880749940872192,-17.3002272727273,-17.2118968963623,0.53302937746048
72,-21.96,-16.2065601348877,0.384636998176575,-19.92,-17.2495098114014,-0.226651042699814
73,-14.3984039900249,-16.181791305542,0.712220728397369,-17.1018453865337,-17.2474880218506,-0.189514771103859
74,-18.8158974358974,-16.2173843383789,0.536139249801636,-20.8094871794872,-17.2956237792969,-0.189329564571381
75,-5.4,-16.0731544494629,0.960430860519409,-7.44,-17.1642150878906,0.88815838098526
76,-18.6035023041475,-16.1064491271973,2.15875673294067,-14.6632258064516,-17.1313095092773,0.406408607959747
77,-11.64,-16.0484409332275,1.01357460021973,-11.6,-17.0594711303711,0.711022973060608
78,-22.0856281407035,-16.1258411407471,0.829200029373169,-18.8148743718593,-17.0819778442383,0.272789657115936
79,-13.8,-16.0964012145996,0.563475966453552,-7.32,-16.9584102630615,0.543348431587219
80,-12.5917948717949,-16.0525932312012,1.25407600402832,-10.5902564102564,-16.8788070678711,1.05091750621796
81,-17.84,-16.0746612548828,0.796164572238922,-20.1641860465116,-16.9193668365479,0.241378337144852
82,-13.3834413965087,-16.0418395996094,1.60459995269775,-19.8300249376559,-16.9548625946045,-0.586780428886414
83,-14.5727272727273,-16.0241413116455,6.15656661987305,-13.4451515151515,-16.912576675415,0.0963640213012695
84,-16.2257943925234,-16.0265407562256,0.404317796230316,-15.88,-16.9002838134766,0.463899493217468
85,-10.9050292397661,-15.9662866592407,1.77510499954224,-14.9228070175439,-16.8770198822021,0.871258318424225
86,-16.7814814814815,-15.9757661819458,1.09200513362885,-16.5159259259259,-16.8728218078613,0.510208904743195
87,-19.92,-16.0211029052734,1.17564249038696,-21.96,-16.9312934875488,0.499069780111313
88,-17.1424657534247,-16.0338459014893,-0.169499218463898,-17.1619178082192,-16.9339160919189,0.0345789045095444
89,-20.8124731182796,-16.0875377655029,0.41240456700325,-22.4223655913978,-16.9955825805664,-0.407890558242798
90,-21.96,-16.1527881622314,-0.260925769805908,-11.64,-16.9360752105713,1.15183866024017
91,-20.4876392572944,-16.2004241943359,-0.285097599029541,-16.999151193634,-16.9367694854736,0.590538501739502
92,-11.72,-16.1517219543457,1.27400636672974,-15.84,-16.9248485565186,0.507739245891571
93,-15.84,-16.1483726501465,1.04297816753387,-17.88,-16.9351196289062,1.00086045265198
94,-16.7638554216867,-16.1549205780029,0.308421432971954,-20.4019277108434,-16.9720001220703,0.644344925880432
95,-24,-16.2374992370605,1.28513932228088,-18.0731838565022,-16.9835929870605,0.672353267669678
96,-10.0184615384615,-16.1727180480957,0.424371153116226,-16.8338461538462,-16.9820327758789,-0.114089943468571
97,-20.3438683127572,-16.2157192230225,0.627185583114624,-19.2368724279835,-17.005277633667,0.0119840772822499
98,-21.2466832917706,-16.2670555114746,0.594095885753632,-17.2291271820449,-17.0075607299805,0.0654592961072922
99,-15.8135714285714,-16.2624759674072,-0.0734734833240509,-14.6971428571429,-16.984224319458,0.133422583341599
100,-16.7775,-16.2676258087158,-0.0702128410339355,-14.721875,-16.9616012573242,0.176677763462067
101,-14.7831884057971,-16.2529277801514,0.496259212493896,-13.76,-16.9299011230469,0.18191522359848
102,-16.7339393939394,-16.2576446533203,1.1948961019516,-15.9784848484849,-16.9205741882324,0.164105013012886
103,-11.8263414634146,-16.21462059021,0.885109961032867,-16.1719512195122,-16.9133071899414,0.286365807056427
104,-17.88,-16.2306346893311,0.960728406906128,-13.8,-16.8833713531494,0.284235775470734
105,-19.2576223776224,-16.259464263916,1.05612540245056,-18.9779020979021,-16.9033184051514,0.341206103563309
106,-17.88,-16.274751663208,0.826576948165894,-18.8137991266376,-16.9213428497314,0.525125741958618
107,-21.96,-16.3278846740723,0.588661849498749,-17.92,-16.9306755065918,0.566432237625122
108,-10.2682352941176,-16.2717761993408,0.688058435916901,-11.9945098039216,-16.8849697113037,0.569671034812927
109,-16.5773851590106,-16.2745800018311,0.555705010890961,-16.7293286219081,-16.8835430145264,0.560552537441254
110,-15.88,-16.2709941864014,0.672754287719727,-17.88,-16.8926010131836,0.528646349906921
111,-15.6699763593381,-16.2655792236328,1.11294221878052,-19.1564066193853,-16.9129962921143,0.573849737644196
112,-11.5001709401709,-16.2230319976807,0.740170121192932,-19.3073504273504,-16.9343738555908,-0.439907670021057
113,-18.2457957244656,-16.240930557251,0.655484676361084,-18.7608551068884,-16.9505367279053,0.287181943655014
114,-18.3244444444444,-16.2592086791992,0.72261381149292,-16.1730158730159,-16.943717956543,0.305425703525543
115,-19.528679245283,-16.2876377105713,0.824295520782471,-13.0030188679245,-16.9094486236572,0.54316246509552
116,-16.6109417040359,-16.2904243469238,0.675161123275757,-19.0417937219731,-16.9278316497803,0.62924337387085
117,-21.96,-16.3388824462891,0.321398854255676,-17.88,-16.9359683990479,0.524527013301849
118,-14.8245161290323,-16.3260498046875,0.605225920677185,-13.1316129032258,-16.9037284851074,0.461761742830276
119,-16.9785221674877,-16.3315334320068,0.195103347301483,-16.4108374384236,-16.899585723877,0.67483788728714
120,-19.92,-16.3614368438721,0.412709653377533,-10.2889768976898,-16.8444995880127,1.61207985877991
121,-14.6445945945946,-16.3472461700439,1.11889910697937,-17.84,-16.852725982666,0.952797174453735
122,-14.194495412844,-16.3296012878418,1.05105471611023,-14.8222018348624,-16.8360843658447,0.91636860370636
123,-16.9144680851064,-16.334358215332,0.874135673046112,-9.57638297872341,-16.7770614624023,0.645124018192291
124,-17.6821052631579,-16.3452262878418,0.761095106601715,-15.1759398496241,-16.7641487121582,0.619747757911682
125,-7.64,-16.2755832672119,0.513309121131897,-18.2569841269841,-16.7760906219482,0.63082891702652
126,-16.4606451612903,-16.2770538330078,0.927320957183838,-16.4082949308756,-16.7731704711914,0.470759928226471
127,-16.4138396624473,-16.2781295776367,0.985265135765076,-16.4308860759494,-16.7704772949219,0.160884439945221
128,-15.2878048780488,-16.270393371582,1.05734503269196,-13.9285636856369,-16.7482738494873,0.155275940895081
129,-10.8974193548387,-16.2287425994873,0.089332103729248,-14.0825806451613,-16.727611541748,0.19011053442955
130,-14.7954751131222,-16.217716217041,0.57802939414978,-21.96,-16.7678604125977,0.0920342430472374
131,-14.8113131313131,-16.2069816589355,1.09529232978821,-16.5773737373737,-16.7664051055908,0.121344417333603
132,-15.1644859813084,-16.1990833282471,0.552179992198944,-17.453707165109,-16.771614074707,0.231738850474358
133,-15.8,-16.1960830688477,2.40196704864502,-20.7002197802198,-16.8011512756348,-0.280954718589783
134,-14.7159689922481,-16.185037612915,0.871315598487854,-18.0285271317829,-16.8103103637695,0.326773077249527
135,-18.2442553191489,-16.2002906799316,2.30086779594421,-17.5375886524823,-16.8156967163086,0.627574741840363
136,-20.8437288135593,-16.2344341278076,0.0393989384174347,-13.4361016949153,-16.7908477783203,0.493439733982086
137,-15.6821292775665,-16.2304019927979,0.0540170669555664,-18.347680608365,-16.8022117614746,0.464587211608887
138,-14.3346268656716,-16.2166633605957,1.26809132099152,-20.7446268656716,-16.8307800292969,0.364627659320831
139,-21.1493577981651,-16.2521514892578,0.201807782053947,-16.352752293578,-16.8273391723633,0.180060207843781
140,-22.1432460732984,-16.2942314147949,0.469899713993073,-20.5220942408377,-16.8537311553955,0.00304980552755296
141,-16.5721428571429,-16.2962036132812,2.32196068763733,-12.8671428571429,-16.8254566192627,-0.181387007236481
142,-18.6099270072993,-16.3124961853027,0.792886137962341,-19.92,-16.8472499847412,-0.0624024234712124
143,-20.0296259351621,-16.3384876251221,1.01189303398132,-15.6429925187032,-16.8388271331787,0.070302776992321
144,-8.49654008438819,-16.2840309143066,0.977511763572693,-11.9395780590717,-16.8048057556152,0.163505882024765
145,-11.4659922178988,-16.2508029937744,0.959991037845612,-15.0568093385214,-16.7927513122559,0.311724960803986
146,-14.1711041009464,-16.2365589141846,1.07148361206055,-15.9051104100946,-16.7866706848145,0.444243222475052
147,-17.734748603352,-16.2467498779297,0.951978445053101,-20.1769832402235,-16.8097343444824,0.200840845704079
148,-20.3856488549618,-16.274715423584,0.237934619188309,-18.8723664122137,-16.8236713409424,-0.158657386898994
149,-21.96,-16.312873840332,0.692304968833923,-16.0078004535147,-16.8181953430176,-0.126419916749001
150,-10.3569426751592,-16.2731666564941,0.554984390735626,-18.8750318471338,-16.8319072723389,-0.132105082273483
151,-18.1836815920398,-16.2811660766602,0.480517208576202,-14.526368159204,-16.7913246154785,0.0438440069556236
152,-14.6486956521739,-16.2726764678955,0.865603864192963,-17.0457971014493,-16.7644100189209,0.0800827592611313
153,-14.423961352657,-16.2508697509766,0.856563031673431,-15.72,-16.7498168945312,0.20988866686821
154,-12.889014084507,-16.2249240875244,1.83491468429565,-21.007323943662,-16.8277244567871,0.0455752611160278
155,-17.5308602150538,-16.2225952148438,0.660398364067078,-12.9911827956989,-16.7679328918457,-0.058218952268362
156,-18.0792792792793,-16.2486686706543,0.721640229225159,-18.2043243243243,-16.7653713226318,0.117615275084972
157,-22.6753284671533,-16.3056812286377,0.966057419776917,-19.92,-16.7748966217041,0.391279071569443
158,-20.5353846153846,-16.3525161743164,-0.286417543888092,-14.8328744939271,-16.7271137237549,-0.257254362106323
159,-15.84,-16.3977966308594,1.12831676006317,-11.72,-16.6547946929932,0.496641606092453
160,-17.4190476190476,-16.4328002929688,0.880276560783386,-7.57777777777778,-16.6269149780273,0.833275973796844
161,-21.96,-16.4553909301758,1.13178145885468,-12.0536263736264,-16.588794708252,0.914605140686035
162,-10.262641509434,-16.4184761047363,1.26951503753662,-17.88,-16.6162624359131,0.575598955154419
163,-19.1342857142857,-16.3996391296387,1.19323635101318,-17.1121428571429,-16.5917739868164,0.378170251846313
164,-19.92,-16.444507598877,0.569755554199219,-11.1776744186047,-16.5393447875977,0.495648741722107
165,-13.68,-16.4457149505615,0.871155917644501,-20.9055072463768,-16.5666217803955,0.645492732524872
166,-13.84,-16.4462490081787,1.04409980773926,-5.32,-16.4692878723145,0.658043384552002
167,-13.64,-16.4043827056885,1.10797524452209,-7.6,-16.4494457244873,0.811685264110565
168,-17.88,-16.4280395507812,1.23577082157135,-15.8229007633588,-16.4284858703613,0.969289243221283
169,-19.4161596009975,-16.4246807098389,0.48232713341713,-13.108927680798,-16.3830795288086,0.983358561992645
170,-14.5321428571429,-16.3884944915771,0.580583274364471,-19.505,-16.4064331054688,0.880835056304932
171,-11.6,-16.333028793335,1.1386855840683,-21.96,-16.4362926483154,0.827987611293793
172,-15.8380228136882,-16.2948265075684,1.54825568199158,-14.292319391635,-16.4226684570312,0.5532106757164
173,-19.1466666666667,-16.3282928466797,1.08487629890442,-16.2133333333333,-16.3843555450439,0.672357320785522
174,-16.4159169550173,-16.3280754089355,1.03635191917419,-14.4159169550173,-16.4104461669922,0.692876279354095
175,-14.9552662721893,-16.2876930236816,1.00455105304718,-17.8859171597633,-16.4042091369629,0.767699956893921
176,-18.8765397923875,-16.2766380310059,0.445781856775284,-15.9076816608997,-16.3890914916992,0.814759731292725
177,-19.92,-16.2614402770996,1.81699657440186,-14.6969072164948,-16.3520050048828,0.279747843742371
178,-16.7291338582677,-16.2681674957275,0.691741764545441,-19.92,-16.3520050048828,0.899017989635468
179,-19.1257142857143,-16.2862663269043,1.40468776226044,-15.8628571428571,-16.3339424133301,0.851542949676514
180,-19.9368067226891,-16.3081378936768,0.597699820995331,-20.7771428571429,-16.3490467071533,0.838576674461365
181,-11.8,-16.2763767242432,0.991545081138611,-12.2944680851064,-16.310905456543,0.735946118831635
182,-19.3039130434783,-16.293909072876,0.929603934288025,-19.1226086956522,-16.2881031036377,0.527968227863312
183,-17.7715960912052,-16.3023529052734,0.792912185192108,-15.8609771986971,-16.283540725708,0.473841667175293
184,-15.9646774193548,-16.3031845092773,0.853153109550476,-13.3927419354839,-16.2400283813477,0.520435035228729
185,-10.4971794871795,-16.2669296264648,1.12248837947845,-9.08717948717949,-16.1891994476318,0.61023885011673
186,-15.295867768595,-16.2912998199463,1.14701306819916,-21.96,-16.2299995422363,0.739237606525421
187,-19.9681099656357,-16.3481616973877,0.852911770343781,-16.6841237113402,-16.3212394714355,0.803156554698944
188,-20.7381065088757,-16.3503398895264,0.537519156932831,-18.4997633136095,-16.3330764770508,0.706921637058258
189,-19.261679389313,-16.3442192077637,1.48955547809601,-15.9926717557252,-16.3705787658691,0.117741525173187
190,-4.95004016064257,-16.3165264129639,0.841631412506104,-12.6396787148594,-16.3196544647217,0.400831341743469
191,-13.8,-16.3029289245605,1.17102348804474,-15.84,-16.2924556732178,0.482057094573975
192,-13.8,-16.3327388763428,1.18790483474731,-5.36,-16.2524013519287,0.743354797363281
193,-14.0869961977186,-16.3054733276367,0.338021755218506,-16.6897338403042,-16.2172660827637,0.940984666347504
194,-16.3411820330969,-16.3054809570312,1.07756149768829,-16.8618439716312,-16.2334766387939,0.853057384490967
195,-14.8647120418848,-16.3403148651123,0.738273024559021,-12.1250261780105,-16.2087116241455,0.505874037742615
196,-15.88,-16.3098831176758,0.952285349369049,-3.4,-16.1042766571045,0.374380797147751
197,-17.6232898172324,-16.3233699798584,0.971993803977966,-17.5093472584856,-16.1076564788818,0.649755299091339
198,-18.1659893048128,-16.3403701782227,0.565681576728821,-14.6663101604278,-16.117847442627,0.781347155570984
199,-14.8434782608696,-16.3209266662598,0.718565225601196,-17.0826086956522,-16.1224842071533,0.739019513130188
200,-15.72,-16.3578433990479,1.32708096504211,-19.1861224489796,-16.1602993011475,0.0409164428710938
201,-18.4874380165289,-16.3673458099365,1.41726589202881,-20.8910743801653,-16.2210636138916,0.661294281482697
202,-15.902,-16.3342838287354,0.91656619310379,-18.72,-16.23996925354,0.597127199172974
203,-14.5886852589641,-16.2990074157715,0.336699634790421,-14.9874103585657,-16.2555923461914,0.455787122249603
204,-11.9657142857143,-16.2825374603271,1.31617248058319,-10.89,-16.1681938171387,0.503597974777222
205,-13.72,-16.2691535949707,1.2494500875473,-7.52,-16.1196022033691,0.838622629642487
206,-18.38,-16.2651042938232,1.11596214771271,-13.22,-16.0477352142334,1.06082379817963
207,-14.89,-16.2403182983398,0.539203882217407,-22.185,-16.0708255767822,1.03864896297455
208,-17.1279338842975,-16.2453384399414,0.445154190063477,-24,-16.1254940032959,0.964757561683655
209,-18.8002898550725,-16.2688045501709,0.858680903911591,-18.9124637681159,-16.1091117858887,-0.0977706909179688
210,-19.92,-16.2986755371094,1.21570456027985,-17.88,-16.0955104827881,0.777541041374207
211,-17.3168539325843,-16.3221206665039,1.10004150867462,-11.76,-16.0821781158447,0.877631068229675
212,-15.1317472118959,-16.3475856781006,1.27307605743408,-17.1671375464684,-16.0671710968018,0.973644077777863
213,-13.9140789473684,-16.3894138336182,-0.144739434123039,-11.0511842105263,-16.0776462554932,0.876715421676636
214,-18.4343237250554,-16.4067096710205,0.0427436009049416,-12.6556097560976,-16.0292167663574,0.774840772151947
215,-12.2285714285714,-16.3671112060547,1.14807724952698,-17.1428571428571,-16.0210552215576,0.735159873962402
216,-16.3268421052632,-16.3865089416504,0.679005026817322,-19.92,-16.007453918457,0.809658706188202
217,-15.8470671378092,-16.4142894744873,1.12191843986511,-18.5195759717314,-16.025318145752,0.876939654350281
218,-13.7498850574713,-16.3843631744385,0.927330255508423,-11.6358620689655,-16.0383586883545,0.911539316177368
219,-18.7817475728155,-16.3566646575928,1.34715211391449,-17.84,-16.0379028320312,0.901604771614075
220,-16.5389203084833,-16.3570899963379,0.941083610057831,-15.6160411311054,-16.0184955596924,0.787953495979309
221,-7.68,-16.303373336792,1.31634473800659,-13.76,-15.9948959350586,0.885831296443939
222,-18.1837795275591,-16.2782001495361,1.37423133850098,-11.3387401574803,-15.937686920166,0.997924387454987
223,-12.775406360424,-16.2673797607422,1.27376627922058,-17.857667844523,-15.9427261352539,1.04694020748138
224,-14.404350132626,-16.2379684448242,0.0757918208837509,-15.9938461538462,-15.9106216430664,-0.163387894630432
225,-13.8,-16.2939701080322,0.766308426856995,-16.9870588235294,-15.974268913269,1.10851967334747
226,-12.1727777777778,-16.2510967254639,0.999357342720032,-12.2997222222222,-15.9585123062134,1.02166736125946
227,-13.7547540983607,-16.2651958465576,1.14170014858246,-18.2336299765808,-16.0027351379395,0.976852357387543
228,-15.84,-16.2235584259033,1.04927325248718,-13.84,-15.9695701599121,0.919454991817474
229,-18.7730708661417,-16.2567119598389,1.36087882518768,-13.2993700787402,-16.0094318389893,0.867213785648346
230,-8.51186991869919,-16.229513168335,2.03259301185608,-15.7674796747967,-16.0439453125,0.841009736061096
231,-22.295593220339,-16.2592163085938,0.00971095450222492,-19.92,-16.0423183441162,-0.424842536449432
232,-18.1940886699507,-16.2912883758545,1.64192378520966,-12.7446305418719,-15.9950847625732,0.931598365306854
233,-12.0450678733032,-16.2744369506836,0.693507313728333,-13.6785520361991,-15.9966402053833,0.872695028781891
234,-14.0514285714286,-16.2599391937256,1.22382009029388,-18.5542857142857,-16.0144691467285,0.702535629272461
235,-13.76,-16.2789745330811,1.40637814998627,-21.96,-16.0613842010498,0.867311537265778
236,-13.68,-16.2582969665527,1.22096681594849,-11.52,-16.028076171875,0.760644793510437
237,-16.38,-16.2346973419189,0.982294917106628,-22.9407692307692,-16.0346164703369,0.829937338829041
238,-19.1353191489362,-16.2479839324951,0.961676239967346,-14.6748936170213,-16.0180339813232,0.681398153305054
239,-18.608323699422,-16.2332878112793,1.34046006202698,-19.4175722543353,-15.9980010986328,0.935414016246796
240,-10.5867796610169,-16.1574668884277,1.37449359893799,-17.2933898305085,-16.0356941223145,0.940192580223083
241,-12.2909215017065,-16.1028213500977,0.953148543834686,-13.9077133105802,-16.0150814056396,0.941228210926056
242,-15.88,-16.1305561065674,1.22381317615509,-16.6536283185841,-16.0205059051514,0.961353719234467
243,-12.0463888888889,-16.1052646636963,1.29797792434692,-14.1263888888889,-15.9954814910889,0.957939267158508
244,-17.88,-16.1127071380615,1.35667705535889,-13.8,-15.9514694213867,1.02179872989655
245,-17.2316666666667,-16.0675849914551,1.3573511838913,-14.2458333333333,-15.9259538650513,1.06725347042084
246,-21.96,-16.1471939086914,0.910213589668274,-16.6805797101449,-15.9249315261841,1.10028195381165
247,-20.8124009324009,-16.150318145752,0.238551616668701,-18.92662004662,-15.9228649139404,-0.190883219242096
248,-17.88,-16.1278743743896,1.45348739624023,-7.64,-15.8589353561401,1.05646646022797
249,-8.62582278481013,-16.0799541473389,0.78088253736496,-20.455864978903,-15.8973274230957,1.10807168483734
250,-14.4952293577982,-16.0647392272949,0.601544618606567,-15.8,-15.9045152664185,1.1552529335022
251,-16.5163285024155,-16.0762939453125,1.09865701198578,-16.7433816425121,-15.9244041442871,1.03173208236694
252,-14.4507692307692,-16.0610733032227,1.02754724025726,-11.7729487179487,-15.8963670730591,0.773588001728058
253,-16.28,-16.090763092041,0.779243648052216,-18.252,-15.9102344512939,0.540446698665619
254,-16.6257575757576,-16.0824031829834,0.788299143314362,-15.6484848484848,-15.9225587844849,0.483144998550415
255,-15.8,-16.0593528747559,1.28811621665955,-13.8,-15.8880386352539,0.421206295490265
256,-10.7284210526316,-16.0116748809814,1.28292107582092,-18.1642105263158,-15.8837080001831,0.599503874778748
257,-17.88,-15.9844741821289,1.17165946960449,-15.3872727272727,-15.8668231964111,0.829164028167725
258,-14.9297959183673,-16.015552520752,1.04964160919189,-13.7281632653061,-15.8783807754517,0.755698621273041
259,-16.7606349206349,-16.016773223877,0.746069133281708,-16.6766666666667,-15.8780307769775,0.596678555011749
260,-7.9754609929078,-15.964075088501,1.31458926200867,-9.0463829787234,-15.8191385269165,0.745097398757935
261,-14.6188679245283,-15.9570684432983,0.988652288913727,-17.84,-15.8103628158569,0.892958402633667
262,-13.4849535603715,-15.9702997207642,0.691428065299988,-20.7156656346749,-15.8197526931763,0.886986017227173
263,-14.0716483516484,-15.9424724578857,1.4179539680481,-17.5289377289377,-15.8115396499634,0.803295612335205
264,-16.5147967479675,-15.9304084777832,1.26596522331238,-14.189593495935,-15.7983169555664,0.737957239151001
265,-14.432131147541,-15.8964309692383,1.2049617767334,-17.92,-15.8310966491699,0.85972797870636
266,-16.2291271820449,-15.8938865661621,1.03090953826904,-17.94463840399,-15.8237829208374,0.975241005420685
267,-19.88,-15.8800191879272,0.55532306432724,-12.8877192982456,-15.7905015945435,0.965702295303345
268,-17.1660869565217,-15.8956279754639,1.43052875995636,-11.4804347826087,-15.7794923782349,1.04463827610016
269,-11.6133333333333,-15.8598613739014,1.41098809242249,-18.6844444444444,-15.7946481704712,1.03232085704803
270,-20.4112280701754,-15.8631362915039,0.505978584289551,-16.3789473684211,-15.8352489471436,0.887482643127441
271,-12.0050331125828,-15.8455400466919,0.462595522403717,-14.4688741721854,-15.8127746582031,0.304435074329376
272,-13.8,-15.8429098129272,0.941020727157593,-11.72,-15.7920951843262,0.697266459465027
273,-18.5101369863014,-15.8535480499268,0.654156386852264,-19.96,-15.8613185882568,0.874474287033081
274,-9.34206896551724,-15.797947883606,1.53642702102661,-17.8695566502463,-15.8792753219604,0.722820520401001
275,-8.89032258064516,-15.8062829971313,1.41917788982391,-13.9935483870968,-15.8508529663086,0.604480981826782
276,-16.3373665480427,-15.8054609298706,1.11611866950989,-19.0570818505338,-15.8685111999512,0.899679183959961
277,-15.0338461538462,-15.7962617874146,0.785319983959198,-14.3292307692308,-15.8545007705688,-0.560332655906677
278,-14.1522261484099,-15.7886896133423,1.34012281894684,-10.4397173144876,-15.831241607666,1.01957774162292
279,-17.0303114186851,-15.8295764923096,0.763045966625214,-14.4312802768166,-15.8335657119751,1.08452272415161
280,-15.4491228070175,-15.8339338302612,1.03293335437775,-20.9726315789474,-15.8269844055176,0.957255363464355
281,-15.84,-15.8407926559448,1.28311681747437,-15.8,-15.8218002319336,0.689316034317017
282,-15.8,-15.8450288772583,1.42263627052307,-14.378025751073,-15.8012952804565,0.638486921787262
283,-15.76,-15.844762802124,1.47066402435303,-15.76,-15.7683610916138,0.700729370117188
284,-17.84,-15.8655891418457,1.51365900039673,-19.92,-15.7809715270996,0.87200003862381
285,-15.88,-15.8498277664185,0.18726210296154,-15.7165217391304,-15.7688312530518,1.01872968673706
286,-16.9618713450292,-15.8239488601685,0.524086058139801,-21.1188304093567,-15.8200492858887,0.212149143218994
287,-18.0710828025478,-15.8398742675781,0.541152656078339,-9.90675159235669,-15.7637758255005,0.993608057498932
288,-11.8,-15.82297706604,0.685847282409668,-15.88,-15.7313442230225,0.979680240154266
289,-19.9098507462687,-15.8147134780884,0.486940860748291,-16.4519402985075,-15.7320070266724,0.444146275520325
290,-21.96,-15.8134927749634,1.14872360229492,-14.324861878453,-15.690691947937,1.15348601341248
291,-21.1810966057441,-15.8442192077637,0.385077357292175,-19.1810966057441,-15.7327852249146,1.13739919662476
292,-18.6759183673469,-15.8446578979492,0.516574144363403,-12.4963265306122,-15.6832942962646,-0.391389489173889
293,-14.0773109243697,-15.8049774169922,1.09748566150665,-22.178487394958,-15.7268648147583,1.09176242351532
294,-13.910303030303,-15.8410673141479,1.24028742313385,-6.90848484848485,-15.693323135376,1.15536797046661
295,-16.9815228426396,-15.8778381347656,1.27704203128815,-11.8119796954315,-15.6716928482056,1.11049973964691
296,-15.88,-15.8892316818237,1.27943325042725,-13.8,-15.6576566696167,1.00331962108612
297,-14.0769739952719,-15.8648471832275,1.26967442035675,-21.4188179669031,-15.6659374237061,1.00797843933105
298,-11.8,-15.8076086044312,1.21427142620087,-7.64,-15.5910549163818,1.096755027771
299,-15.84,-15.766809463501,0.804411649703979,-19.92,-15.6171350479126,-0.457035660743713
300,-16.9666666666667,-15.8108739852905,0.945080280303955,-12.9283333333333,-15.5774898529053,1.03931224346161
301,-9.64,-15.7539157867432,1.13175225257874,-13.56,-15.5710477828979,0.891491293907166
302,-7.02,-15.7030582427979,1.38726007938385,-14.88,-15.5566101074219,0.914561986923218
303,-4.02373205741627,-15.6337223052979,1.45886099338531,-17.88,-15.571008682251,0.900754928588867
304,-13.84,-15.640061378479,1.44192266464233,-15.8,-15.5362920761108,0.928263783454895
305,-14.4031746031746,-15.6192102432251,0.817382872104645,-13.76,-15.5414180755615,1.12560820579529
306,-10.4553846153846,-15.5683851242065,1.30636024475098,-11.7969230769231,-15.4987030029297,-0.640286087989807
307,-16.9898470948012,-15.530481338501,1.39383506774902,-14.102752293578,-15.4599199295044,1.15016651153564
308,-11.76,-15.4719791412354,1.39796245098114,-11.68,-15.4389009475708,1.17910706996918
309,-14.0796208530806,-15.460244178772,1.38867855072021,-14.1296682464455,-15.4549655914307,1.15705943107605
310,-9.56,-15.4078502655029,1.32776427268982,-7.6,-15.455114364624,1.15126693248749
311,-13.2808333333333,-15.3499889373779,1.24711155891418,-12.5566666666667,-15.4584684371948,1.14462983608246
312,-18.7627160493827,-15.4066553115845,1.29579317569733,-16.0807407407407,-15.4464731216431,1.12607634067535
313,-18.6876923076923,-15.4036779403687,0.621687293052673,-13.64,-15.4233255386353,1.05369353294373
314,-12.8301831501832,-15.3564128875732,1.38497853279114,-18.9532600732601,-15.4751625061035,0.0903997421264648
315,-13.9076190476191,-15.357931137085,0.951291799545288,-10.1733333333333,-15.4036149978638,0.770148873329163
316,-18.7102702702703,-15.390398979187,1.21888446807861,-16.9135135135135,-15.4809045791626,0.777349174022675
317,-13.3155555555556,-15.3882360458374,1.2755925655365,-14.677264957265,-15.5280857086182,0.811125516891479
318,-13.6236065573771,-15.3598604202271,1.26762437820435,-11.04,-15.4962015151978,0.729679703712463
319,-11.9317757009346,-15.3099641799927,1.23644256591797,-18.0248598130841,-15.5289745330811,0.600342750549316
320,-16.4877470355731,-15.3230009078979,1.09541523456573,-8.98387351778656,-15.4588327407837,0.648909866809845
321,-13.3687417218543,-15.3347930908203,0.817673683166504,-20.6352317880795,-15.4499998092651,-0.12936133146286
322,-12.2597183098592,-15.3109378814697,1.51615488529205,-15.0112676056338,-15.4547929763794,-0.0417976975440979
323,-11.4494524495677,-15.2596225738525,0.413556396961212,-18.343976945245,-15.4689970016479,0.1673623919487
324,-16.3854430379747,-15.2594184875488,1.17938303947449,-16.2778481012658,-15.4814109802246,0.928491175174713
325,-11.68,-15.237585067749,1.37532782554626,-13.76,-15.4539041519165,0.915459454059601
326,-17.3577070063694,-15.2274580001831,1.279341340065,-15.0211464968153,-15.4479951858521,0.945074439048767
327,-16.2933333333333,-15.2032814025879,1.10600447654724,-19.48,-15.4798831939697,0.991500854492188
328,-15.9357466063348,-15.1979913711548,1.0040899515152,-12.6197285067873,-15.4312124252319,1.00357341766357
329,-12.575960591133,-15.1543264389038,1.08577036857605,-18.4218719211823,-15.4482727050781,0.938969254493713
330,-14.5508157099698,-15.1184196472168,1.28211939334869,-10.8763746223565,-15.382266998291,0.898747622966766
331,-10.5103139013453,-15.1098222732544,0.2752286195755,-19.1490582959641,-15.4279642105103,-0.150318622589111
332,-17.88,-15.1003303527832,1.38466203212738,-18.854025974026,-15.426173210144,1.02591061592102
333,-15.76,-15.0869188308716,1.22304809093475,-12.7033962264151,-15.4051237106323,1.02848339080811
334,-13.9142675159236,-15.0732507705688,1.41029322147369,-12.6357961783439,-15.4000778198242,0.928593695163727
335,-14.2722222222222,-15.0984163284302,0.511574864387512,-19.4911111111111,-15.4694366455078,0.744349122047424
336,-21.0746391752577,-15.13694190979,1.10866641998291,-15.0421649484536,-15.423318862915,0.663879871368408
337,-19.4110734463277,-15.1332273483276,1.078653216362,-20.8550282485876,-15.4511251449585,0.659399807453156
338,-13.8,-15.0869741439819,0.960771322250366,-8.14461538461538,-15.3820915222168,0.80672961473465
339,-11.68,-15.0364303588867,1.32372903823853,-17.84,-15.3944063186646,0.977761089801788
340,-11.64,-15.0810298919678,1.44126605987549,-11.76,-15.3885412216187,1.10328245162964
341,-11.68,-15.0668964385986,1.51636159420013,-11.68,-15.3608093261719,1.15508460998535
342,-16.76875,-15.086688041687,1.43455135822296,-14.2730357142857,-15.4202280044556,1.11392450332642
343,-13.0505322128852,-15.079776763916,1.12626934051514,-15.2321568627451,-15.4105110168457,-0.369254112243652
344,-18.2298542274052,-15.0923681259155,0.894127309322357,-17.88,-15.4172983169556,-0.230959683656693
345,-17.6027118644068,-15.1106214523315,0.707784831523895,-20.055593220339,-15.4701690673828,1.01518094539642
346,-15.84,-15.1103544235229,1.40503871440887,-13.72,-15.5389699935913,0.94124037027359
347,-12.199347826087,-15.0741958618164,1.09989964962006,-14.2172826086957,-15.5170211791992,0.980795681476593
348,-18.2856140350877,-15.0749931335449,1.4457985162735,-14.1326315789474,-15.513463973999,0.930117666721344
349,-18.8078846153846,-15.1014223098755,1.24370920658112,-15.9682692307692,-15.5060348510742,0.701830923557281
350,-11.64,-15.0742216110229,1.21171402931213,-7.56,-15.4285287857056,0.755446076393127
351,-10.6257364341085,-15.0218114852905,1.39380371570587,-5.44,-15.3255205154419,1.05928444862366
352,-8.21573770491803,-14.9705696105957,1.2912255525589,-17.0859016393443,-15.3146276473999,0.937966108322144
353,-12.8973839662447,-14.9592933654785,1.15462481975555,-11.9562869198312,-15.2944192886353,0.740176558494568
354,-16.5963461538462,-14.9901657104492,1.22204768657684,-17.88,-15.3410186767578,0.656863927841187
355,-16.165296803653,-15.0064668655396,-0.0515408515930176,-14.8558904109589,-15.3899250030518,-0.445658028125763
356,-6.48679245283019,-14.9271774291992,1.23083162307739,-11.428427672956,-15.3779821395874,0.687221944332123
357,-14.7507389162562,-14.9262504577637,0.593646228313446,-16.0457142857143,-15.3370542526245,0.613161861896515
358,-21.96,-14.9584636688232,1.4936386346817,-13.8,-15.2690525054932,0.514631509780884
359,-13.8342205323194,-14.9253578186035,0.380843102931976,-19.9542205323194,-15.2759990692139,-0.0827643871307373
360,-17.88,-14.9117574691772,1.12388610839844,-9.64,-15.2210645675659,0.788078606128693
361,-15.8,-14.9016437530518,1.44170904159546,-10.7498148148148,-15.2143297195435,0.98335874080658
362,-17.2703797468354,-14.9159021377563,1.44010281562805,-21.96,-15.2462825775146,0.984419286251068
363,-12.7466666666667,-14.9081182479858,1.10321033000946,-19.92,-15.3054084777832,0.902500331401825
364,-19.714701986755,-14.9166555404663,0.457918345928192,-20.4939514348786,-15.3576641082764,0.749581694602966
365,-3.4,-14.8577995300293,1.0078432559967,-3.48,-15.2665767669678,0.573028683662415
366,-7.4,-14.7982864379883,1.30304324626923,-13.8,-15.2257776260376,0.907180368900299
367,-11.68,-14.7705049514771,1.56060433387756,-17.84,-15.221248626709,1.15053284168243
368,-14.0417158176944,-14.7724514007568,0.950136780738831,-10.377908847185,-15.2128610610962,1.12734830379486
369,-17.88,-14.7664384841919,1.4859938621521,-15.8,-15.1992607116699,1.13996958732605
370,-11.0533333333333,-14.7298679351807,0.255016803741455,-13.8152380952381,-15.187255859375,0.562500894069672
371,-9.19574468085106,-14.7399740219116,1.46157383918762,-21.96,-15.24192237854,0.950807869434357
372,-14.9654263565891,-14.7185192108154,1.47788846492767,-18.0389147286822,-15.2865905761719,0.782406568527222
373,-13.8,-14.7253484725952,1.37766790390015,-13.76,-15.2592725753784,0.684152066707611
374,-15.7788235294118,-14.7345113754272,1.17630529403687,-22.96,-15.3057126998901,0.816812455654144
375,-21.1351515151515,-14.7834129333496,1.17838275432587,-19.1763636363636,-15.3203096389771,0.711351931095123
376,-12.1311278195489,-14.7831344604492,0.144550442695618,-20.3936842105263,-15.374267578125,0.656064033508301
377,-15.056,-14.7918100357056,0.836238145828247,-16.0613333333333,-15.3597869873047,0.656828105449677
378,-19.1096245733788,-14.8136081695557,0.714023351669312,-18.5182252559727,-15.3909749984741,0.655171632766724
379,-11.196,-14.7630939483643,0.740083277225494,-19.604,-15.4330043792725,0.532553911209106
380,-9.76,-14.7714157104492,1.0609495639801,-9.76,-15.3929557800293,0.551803410053253
381,-20.765,-14.7612113952637,1.33782958984375,-11.99,-15.3400897979736,0.836524188518524
382,-8.94519480519481,-14.6995525360107,1.33767139911652,-14.9298701298701,-15.3546581268311,1.05864238739014
383,-20.7520227920228,-14.7575979232788,1.29941093921661,-14.8969800569801,-15.3627796173096,1.1125967502594
384,-12.2649438202247,-14.7456884384155,0.84013819694519,-13.6244943820225,-15.3299150466919,1.08743488788605
385,-22.2228865979381,-14.8021078109741,1.11532616615295,-10.8243298969072,-15.2556772232056,1.15003252029419
386,-19.92,-14.8437080383301,1.27890121936798,-11.6,-15.2562112808228,1.15625846385956
387,-11.4505882352941,-14.8108444213867,0.908095240592957,-14.3047058823529,-15.1986360549927,1.18491947650909
388,-15.8392291220557,-14.7888708114624,1.38361442089081,-19.92,-15.233603477478,1.17600119113922
389,-11.4595918367347,-14.7412128448486,0.4970463514328,-13.2522448979592,-15.1925029754639,-0.109533071517944
390,-13.8,-14.7626333236694,1.33624160289764,-11.76,-15.1556119918823,0.919543445110321
391,-17.6713817330211,-14.7985029220581,1.46445536613464,-12.9405152224824,-15.1491651535034,1.12634074687958
392,-17.84,-14.8115701675415,1.47111678123474,-9.64,-15.1024074554443,1.25822019577026
393,-13.5136507936508,-14.8213529586792,1.45924735069275,-16.0539682539683,-15.1152572631836,1.35408020019531
394,-13.8143396226415,-14.7942476272583,0.139932125806808,-19.5947169811321,-15.1538896560669,-0.0181753635406494
395,-15.8971428571429,-14.7853517532349,0.427757203578949,-16.1580952380952,-15.1666374206543,0.686122715473175
396,-16.2721766561514,-14.7474317550659,1.18595194816589,-17.8431545741325,-15.1743879318237,0.877606451511383
397,-13.8,-14.70068359375,0.211759984493256,-15.8882456140351,-15.1541328430176,-0.204048305749893
398,-18.9745454545455,-14.7079782485962,0.97563236951828,-16.2909090909091,-15.2118053436279,0.874915778636932
399,-16.2865722379603,-14.7590494155884,1.02900242805481,-17.8431728045326,-15.1943883895874,0.980886995792389
400,-9.68,-14.7269477844238,1.06647717952728,-17.88,-15.2082548141479,1.04286527633667
401,-15.3811180124224,-14.7193813323975,1.19394159317017,-10.0472049689441,-15.163613319397,1.07947242259979
402,-16.9311854103343,-14.7359161376953,0.352638959884644,-18.6976291793313,-15.2097787857056,-0.590608716011047
403,-11.68,-14.7052507400513,1.34507715702057,-5.48,-15.1246318817139,1.26614022254944
404,-19.92,-14.7272119522095,1.43193173408508,-16.9166283524904,-15.1330862045288,1.38349497318268
405,-21.327963800905,-14.7640657424927,0.00481182336807251,-12.4944796380091,-15.1243810653687,1.43448805809021
406,-18.7306329113924,-14.8174133300781,0.419425070285797,-13.7225316455696,-15.0947704315186,1.37760484218597
407,-11.9664583333333,-14.7779912948608,1.22423458099365,-18.8435416666667,-15.1178121566772,1.27686393260956
408,-20.8453731343284,-14.8174285888672,1.36732995510101,-13.2562686567164,-15.1146659851074,0.674592256546021
409,-24,-14.8656902313232,0.494210779666901,-14.34391184573,-15.0991144180298,0.58060348033905
410,-24,-14.9725198745728,0.904898703098297,-13.76,-15.1305389404297,1.08271920681
411,-19.92,-15.0078611373901,0.877178966999054,-12.8044444444444,-15.0969676971436,1.2526444196701
412,-17.84,-15.0368947982788,0.863665163516998,-13.76,-15.0505971908569,1.32182276248932
413,-19.92,-15.0758838653564,1.02982687950134,-16.8193939393939,-15.0458660125732,1.21868193149567
414,-15.269347826087,-15.0675802230835,1.1293785572052,-9.85739130434782,-15.0169858932495,-0.387683868408203
415,-15.7625935162095,-15.0764503479004,1.19601714611053,-15.3261845386534,-14.9996938705444,0.948467195034027
416,-20.4907936507936,-15.1048603057861,0.325695633888245,-19.4620105820106,-15.0098075866699,-0.11513277888298
417,-10.202962962963,-15.0403480529785,1.19387602806091,-11.8933333333333,-15.0031805038452,1.09659945964813
418,-15.84,-15.0315074920654,1.30692887306213,-13.72,-15.0181083679199,1.2142368555069
419,-18.8110610932476,-15.0794925689697,1.38676500320435,-10.8682958199357,-14.9660024642944,1.34769070148468
420,-15.2629607250755,-15.0451688766479,0.139068603515625,-16.7795770392749,-14.9686717987061,0.610418200492859
421,-13.68,-15.0563364028931,1.30215537548065,-17.88,-14.9914131164551,1.36085152626038
422,-12.1769343065693,-15.0455160140991,1.31993901729584,-17.84,-15.0322132110596,1.37160241603851
423,-12.1742259414226,-15.0032768249512,0.854452252388,-22.3282008368201,-15.0480012893677,1.32199263572693
424,-17.84,-15.0599298477173,1.16520237922668,-15.8,-15.0342054367065,1.24289679527283
425,-13.72,-15.0921268463135,1.18270254135132,-21.96,-15.0873146057129,1.19646143913269
426,-15.3333333333333,-15.0854349136353,0.0141280889511108,-12.2266666666667,-15.0417776107788,-0.352588504552841
427,-22.0513043478261,-15.1322164535522,1.12183058261871,-10.3034782608696,-15.0149412155151,0.970286846160889
428,-18.3202702702703,-15.1600036621094,0.171245753765106,-18.7414864864865,-15.0702867507935,0.844896554946899
429,-9.47333333333333,-15.1096239089966,0.320461869239807,-12.6870967741936,-15.0586585998535,1.11484348773956
430,-22.3551048951049,-15.1556644439697,0.509263515472412,-19.3295104895105,-15.0477018356323,1.07779395580292
431,-17.92,-15.1695308685303,0.799798786640167,-18.1257142857143,-15.0632076263428,1.12432157993317
432,-20.5101730103806,-15.2009305953979,1.26259303092957,-18.0218685121107,-15.0874996185303,1.00232434272766
433,-15.8426829268293,-15.2014827728271,0.601591289043427,-20.4504878048781,-15.1187715530396,1.00872921943665
434,-20.753956043956,-15.2209100723267,0.978599190711975,-18.5640659340659,-15.1097316741943,0.893706262111664
435,-7.6,-15.1657094955444,1.48606419563293,-15.8,-15.1102876663208,0.921581983566284
436,-9.83728813559322,-15.1182126998901,1.23721623420715,-15.0307344632768,-15.0697002410889,1.04183876514435
437,-15.8618556701031,-15.1034851074219,1.36329090595245,-13.76,-15.0953874588013,1.17909717559814
438,-11.68,-15.1026840209961,1.38195824623108,-11.8,-15.0681886672974,1.26058983802795
439,-14.3035761589404,-15.0653095245361,1.39779806137085,-18.6813245033113,-15.0830497741699,1.31104004383087
440,-16.432183908046,-15.0284566879272,1.14028775691986,-18.3189272030651,-15.1096773147583,0.0176695585250854
441,-12.2783935742972,-14.9691066741943,1.18346393108368,-14.0971887550201,-15.0757846832275,1.06457662582397
442,-18.7164928909953,-14.9693765640259,0.33753228187561,-15.5109004739336,-15.0958824157715,1.0837687253952
443,-10.0467213114754,-14.9425067901611,0.982051193714142,-14.5508196721311,-15.0450325012207,0.999685823917389
444,-19.92,-14.9825716018677,1.04479026794434,-13.84,-15.0912418365479,0.791448891162872
445,-17.84,-14.9882946014404,1.12307298183441,-17.92,-15.1319608688354,0.812982618808746
446,-10.0231578947368,-14.9492483139038,1.26683974266052,-18.3185964912281,-15.1620845794678,0.740791141986847
447,-18.9758659217877,-14.9819078445435,1.32857954502106,-17.0886033519553,-15.1332178115845,0.819044470787048
448,-17.88,-15.0224418640137,1.3001412153244,-19.92,-15.2150850296021,0.823887228965759
449,-9.64,-14.9811067581177,1.31722795963287,-9.68,-15.1468181610107,0.96119225025177
450,-14.5344360902256,-14.9648923873901,1.37226045131683,-13.6512781954887,-15.1516370773315,1.27630209922791
451,-14.0974683544304,-14.9946098327637,1.3327202796936,-6.20556962025316,-15.1026077270508,1.33115291595459
452,-11.64,-15.025408744812,1.33389234542847,-18.4767041198502,-15.1265850067139,1.28865623474121
453,-16.5685067873303,-15.1090393066406,1.0327445268631,-14.6333031674208,-15.104941368103,1.29410755634308
454,-11.72,-15.0949068069458,1.36047184467316,-15.88,-15.1054754257202,1.36083579063416
455,-18.2303448275862,-15.1204214096069,-0.37640592455864,-24,-15.1737403869629,0.116353631019592
456,-13.804776119403,-15.1427507400513,0.271998047828674,-9.18746268656717,-15.1563444137573,0.494494736194611
457,-15.9666233766234,-15.135929107666,1.19960761070251,-15.8692207792208,-15.1681213378906,0.783436357975006
458,-17.5978947368421,-15.1748485565186,0.0648104548454285,-18.7340350877193,-15.2151479721069,-0.0308632850646973
459,-9.72,-15.1457843780518,1.21803939342499,-7.6,-15.1716175079346,1.1218808889389
460,-18.4932596685083,-15.205340385437,1.31992483139038,-14.6439779005525,-15.2185773849487,1.33164024353027
461,-19.96,-15.2498683929443,1.3057404756546,-17.84,-15.2538003921509,1.07076942920685
462,-10.4140425531915,-15.1942110061646,1.29223167896271,-17.8242553191489,-15.2654228210449,0.9546217918396
463,-14.7232098765432,-15.1677799224854,1.30248320102692,-16.7938271604938,-15.2864484786987,1.03247237205505
464,-16.2141176470588,-15.1903400421143,1.28099048137665,-12.3945098039216,-15.2427225112915,1.17704045772552
465,-14.0934567901235,-15.1915788650513,0.245770871639252,-15.2634567901235,-15.2766571044922,1.12950932979584
466,-14.802194092827,-15.1655244827271,1.56800770759583,-21.96,-15.3102998733521,0.442074537277222
467,-9.64,-15.1410207748413,0.833221554756165,-15.8,-15.3177852630615,0.976338744163513
468,-16.3161904761905,-15.158971786499,1.22082459926605,-19.4157142857143,-15.3736228942871,0.966249823570251
469,-12.762304526749,-15.1645088195801,1.41660761833191,-9.1601646090535,-15.3145246505737,1.08226037025452
470,-12.8921068249258,-15.1405372619629,1.01437437534332,-13.6042729970326,-15.3453283309937,1.02875483036041
471,-14.6005172413793,-15.1487503051758,1.02302920818329,-16.6146551724138,-15.3185253143311,0.940323233604431
472,-8.16887459807074,-15.1214780807495,0.0886911302804947,-22.1786495176849,-15.366307258606,-0.399052321910858
473,-13.76,-15.1368818283081,1.22668933868408,-9.44,-15.3069467544556,1.10571932792664
474,-9.68,-15.0921773910522,1.35647118091583,-9.64,-15.2626953125,1.36866188049316
475,-19.96,-15.1473779678345,1.39271318912506,-16.3511811023622,-15.2799692153931,1.52748453617096
476,-14.2152529182879,-15.1264276504517,1.4460860490799,-13.5254474708171,-15.2699966430664,1.39392960071564
477,-8.18976303317536,-15.0724039077759,1.11780416965485,-13.5893838862559,-15.2307262420654,1.25747191905975
478,-9.72,-15.0309648513794,1.24267911911011,-13.8,-15.2385950088501,1.30635261535645
479,-10.7742281879195,-15.0189552307129,-0.0552805364131927,-12.1828187919463,-15.1970024108887,-0.0388324856758118
480,-17.3154639175258,-15.0373859405518,1.34178245067596,-12.7509278350515,-15.2094984054565,1.29327118396759
481,-12.2309897610922,-15.0488576889038,1.31236529350281,-21.96,-15.2282390594482,1.23798763751984
482,-18.512131147541,-15.0530710220337,1.2880734205246,-17.88,-15.2217445373535,1.19292414188385
483,-15.1782352941176,-15.0491924285889,1.16034364700317,-18.2370588235294,-15.2586364746094,1.1973363161087
484,-13.5561111111111,-15.0468053817749,1.21850872039795,-18.5494444444444,-15.298059463501,1.24320018291473
485,-15.72,-15.0564565658569,1.26762020587921,-17.9425,-15.2877359390259,1.22096383571625
486,-11.8,-14.9946260452271,1.40089905261993,-13.76,-15.2791881561279,1.3111184835434
487,-5.56,-14.9022855758667,1.45129084587097,-9.52,-15.2036218643188,1.47333741188049
488,-16.3935714285714,-14.9195747375488,1.41052722930908,-16.6316666666667,-15.2602014541626,1.48079216480255
489,-15.8834782608696,-14.9475975036621,-0.02484130859375,-17.92,-15.2607355117798,-0.0497792959213257
490,-18.8620788530466,-14.9957456588745,1.39701914787292,-13.6860215053763,-15.2735757827759,1.29155242443085
491,-17.2516129032258,-15.0328903198242,1.337042927742,-14.818064516129,-15.2944955825806,1.27424299716949
492,-19.5981008902077,-15.0517530441284,0.129364430904388,-8.84783382789317,-15.2583284378052,1.24926567077637
493,-16.8858369098712,-15.0773210525513,0.0866712629795074,-12.8430901287554,-15.2424011230469,0.017080694437027
494,-16.4038095238095,-15.0651483535767,1.33608019351959,-20.1104761904762,-15.2572708129883,-0.0608692169189453
495,-15.8612765957447,-15.0535383224487,-0.0160045027732849,-9.64,-15.1878337860107,0.0826766490936279
496,-16.7259259259259,-15.0594453811646,1.34743297100067,-14.5155555555556,-15.19313621521,1.41300582885742
497,-16.3832432432432,-15.0873374938965,1.2346465587616,-15.5837837837838,-15.2022457122803,0.557518243789673
498,-16.9497674418605,-15.0784311294556,0.75020843744278,-21.96,-15.2544288635254,0.113335862755775
499,-20.2412121212121,-15.087986946106,1.21436142921448,-15.8,-15.2533073425293,1.36222231388092
500,-17.0868965517241,-15.1243000030518,1.13143825531006,-13.3172413793103,-15.2916898727417,1.40382981300354
501,-12.4149466192171,-15.1362276077271,1.13414490222931,-13.9886120996441,-15.3486814498901,1.18199241161346
502,-5.56,-15.1185216903687,1.25630974769592,-11.76,-15.3131742477417,0.919780492782593
503,-10.1142857142857,-15.0999670028687,1.43021070957184,-15.3314285714286,-15.335675239563,1.25969636440277
504,-13.42,-15.0787925720215,1.41870927810669,-18.99,-15.3430757522583,1.24593186378479
505,-14.5460810810811,-15.0679979324341,0.226769804954529,-14.957027027027,-15.34375,-0.374804615974426
506,-14.3119540229885,-15.1201658248901,1.32712602615356,-5.22114942528736,-15.3023681640625,1.11670231819153
507,-7.93,-15.0746936798096,1.34973585605621,-16.2036363636364,-15.3034210205078,1.29749727249146
508,-15.5410256410256,-15.0319013595581,1.5596536397934,-17.3153846153846,-15.3268575668335,-0.499023079872131
509,-12.12,-15.0204734802246,1.40261793136597,-16.76,-15.3055610656738,0.891401469707489
510,-20.0872072072072,-15.0351886749268,0.856904923915863,-20.92,-15.3807621002197,-0.415162682533264
511,-18.5608510638298,-15.0535936355591,1.32771396636963,-8.4536170212766,-15.3654537200928,1.0629106760025
512,-16.1717647058824,-15.0462694168091,1.00007700920105,-12.5621848739496,-15.3028011322021,1.17101633548737
513,-18.3015461346633,-15.0833024978638,0.206489443778992,-19.96,-15.3030681610107,0.213284313678741
514,-11.8722807017544,-15.0310192108154,0.781494855880737,-8.40842105263158,-15.2224969863892,0.871541857719421
515,-13.1989915966387,-15.0963459014893,0.919302046298981,-18.443025210084,-15.3222513198853,1.03732490539551
516,-12.5224193548387,-15.1304950714111,1.10251915454865,-12.9538709677419,-15.316611289978,1.084836602211
517,-16.4578010471204,-15.1623468399048,0.781021952629089,-17.92,-15.3171453475952,1.16502809524536
518,-13.2043055555556,-15.1567640304565,0.3896124958992,-14.7305555555556,-15.3461618423462,0.860887289047241
519,-16.7131884057971,-15.1489858627319,1.14140725135803,-12.6368115942029,-15.3250732421875,0.948966979980469
520,-9.23127725856698,-15.1368389129639,1.37279438972473,-17.2490965732087,-15.3479652404785,1.01516199111938
521,-7.64,-15.1264667510986,1.42404687404633,-17.88,-15.320764541626,0.92999404668808
522,-15.84,-15.1322965621948,1.36110043525696,-15.6696682464455,-15.304970741272,0.935090243816376
523,-12.1535742971888,-15.1213216781616,1.31396567821503,-18.5990361445783,-15.3372297286987,0.838999509811401
524,-19.92,-15.1489286422729,1.20208656787872,-14.0455813953488,-15.2778024673462,2.22133445739746
525,-17.92,-15.1274948120117,1.21667683124542,-14.3579399141631,-15.245680809021,1.01165974140167
526,-16.757695473251,-15.1583385467529,1.08386838436127,-18.962304526749,-15.2361373901367,1.0000022649765
527,-14.9375609756098,-15.1575489044189,1.00032699108124,-10.6946341463415,-15.2003593444824,0.987532198429108
528,-16.5272727272727,-15.1403341293335,0.833329319953918,-20.6169696969697,-15.2143507003784,0.673769354820251
529,-10.0996178343949,-15.1330242156982,1.00653433799744,-16.7589808917197,-15.1953821182251,0.283755630254745
530,-6.41473684210526,-15.1107225418091,1.23957049846649,-10.0494736842105,-15.1973123550415,0.285129874944687
531,-9.64,-15.0365562438965,1.3542423248291,-11.72,-15.1955127716064,0.761013269424438
532,-13.9139726027397,-15.0696811676025,1.3881129026413,-12.0920547945205,-15.1765937805176,1.16740930080414
533,-9.09075757575758,-14.9919404983521,1.4258246421814,-18.8610606060606,-15.2030210494995,0.244044899940491
534,-18.8336784741144,-15.0357303619385,1.38760733604431,-20.4976566757493,-15.2488431930542,1.06029725074768
535,-20.5054545454545,-15.0242805480957,1.16298007965088,-20.7684848484848,-15.3151369094849,0.698911607265472
536,-9.64,-14.9557466506958,1.41750192642212,-10.2045901639344,-15.305832862854,0.387813419103622
537,-12.9554237288136,-14.9657793045044,1.30638062953949,-22.7248305084746,-15.3619680404663,0.380616724491119
538,-11.4267307692308,-14.9363622665405,1.23942387104034,-15.3144230769231,-15.331262588501,0.247654259204865
539,-18.6720215633423,-14.9844446182251,0.253362566232681,-15.7137466307278,-15.3476724624634,0.0712885633111
540,-15.88,-14.99831199646,1.17974853515625,-12.42,-15.3520736694336,0.127883821725845
541,-18.8597687861272,-15.0062351226807,1.19591474533081,-11.6187283236994,-15.34326171875,0.357803851366043
542,-13.1185964912281,-14.9747591018677,0.612523674964905,-18.0364912280702,-15.3992385864258,1.36004996299744
543,-15.971970074813,-14.9911470413208,1.19280743598938,-14.6579551122195,-15.389931678772,0.640479922294617
544,-1.36,-14.9081182479858,1.16962563991547,-15.84,-15.3648986816406,0.722705900669098
545,-14.5756701030928,-14.8993101119995,1.37728786468506,-18.1674226804124,-15.3782958984375,0.917068719863892
546,-11.76,-14.8692283630371,1.51025283336639,-9.68,-15.3238735198975,1.05512571334839
547,-5.64,-14.8148279190063,1.53534185886383,-11.76,-15.2963542938232,1.23890388011932
548,-21.96,-14.8347301483154,1.47166228294373,-9.56,-15.2514810562134,1.45444881916046
549,-15.125,-14.8269853591919,0.737938404083252,-18.87,-15.2583255767822,1.5429013967514
550,-7.56,-14.8128528594971,1.2713178396225,-5.6,-15.1764583587646,1.24843883514404
551,-13.9528767123288,-14.8033313751221,1.38729774951935,-16.3468493150685,-15.2184572219849,1.61804723739624
552,-18.0765317919075,-14.8109683990479,1.33186602592468,-12.6732947976879,-15.1782941818237,1.5112042427063
553,-5.48,-14.7696352005005,1.33500099182129,0.680000000000001,-15.137228012085,1.41048216819763
554,-11.76,-14.715235710144,0.150205194950104,-17.88,-15.143651008606,0.0864187479019165
555,-10.8820512820513,-14.6455955505371,1.57697999477386,-17.4382905982906,-15.176609992981,1.53471171855927
556,-11.1769230769231,-14.5952377319336,0.883705914020538,-18.0514102564103,-15.2054691314697,-0.350826501846313
557,-14.3694117647059,-14.6112565994263,1.47297441959381,-17.88,-15.1990442276001,1.2771178483963
558,-7.72,-14.5237550735474,1.47334372997284,-11.72,-15.1888036727905,1.29706788063049
559,-18.88,-14.4896221160889,1.342453956604,-11.5438461538462,-15.1701364517212,1.3811172246933
560,-1.4,-14.3389549255371,1.42368710041046,-5.56,-15.1154699325562,1.3615642786026
561,-17.6130841121495,-14.3235759735107,0.700948417186737,-15.88,-15.1359748840332,0.0666465759277344
562,-8.33909090909091,-14.260235786438,1.59625029563904,-11.4072727272727,-15.1202898025513,1.44426214694977
563,-12.445534591195,-14.2104072570801,1.14138317108154,-14.6427672955975,-15.1057777404785,1.33315742015839
564,-20.6052791878173,-14.2459802627563,1.16543030738831,-8.33543147208122,-15.0956315994263,1.1211404800415
565,-11.7796026490066,-14.2194271087646,1.33420157432556,-17.88,-15.1126565933228,1.13710975646973
566,-14.5013127413127,-14.1794967651367,0.215287506580353,-13.2349034749035,-15.0711421966553,1.18984162807465
567,-11.7215094339623,-14.1896190643311,1.34986090660095,-12.2558490566038,-15.0735597610474,1.04040396213531
568,-13.2083775811209,-14.1720752716064,1.38275992870331,-17.3621238938053,-15.0978403091431,0.848229169845581
569,-10.7006060606061,-14.1180047988892,1.07013189792633,-18.809696969697,-15.150782585144,0.649904727935791
570,-12.4360975609756,-14.0991582870483,1.3958637714386,-12.2915679442509,-15.1208629608154,0.606878101825714
571,-6.19192825112108,-14.0492382049561,1.65335416793823,-18.4584753363229,-15.124719619751,0.739794135093689
572,-19.92,-14.1008596420288,1.42921185493469,-9.6,-15.0697870254517,1.51690244674683
573,-16.9170443349754,-14.1324787139893,0.768413901329041,-21.5056157635468,-15.0643014907837,-0.698630332946777
574,-13.8,-14.1055450439453,1.48213279247284,-13.68,-15.0501689910889,1.46322536468506
575,-14.6901098901099,-14.1120138168335,1.51492357254028,-19.92,-15.0365686416626,1.39459800720215
576,-18.2485897435897,-14.1314468383789,1.51535511016846,-21.96,-15.1014585494995,1.25718688964844
577,-15.1363440860215,-14.0853481292725,1.44979429244995,-12.9888172043011,-15.1193599700928,1.78587186336517
578,-11.9024824355972,-14.0425615310669,1.38341569900513,-17.207868852459,-15.1091375350952,0.746682822704315
579,-18.7310638297872,-14.1042804718018,0.176164269447327,-14.6910638297872,-15.1224966049194,-0.288063943386078
580,-22.4978486055777,-14.1052331924438,0.0369830429553986,-19.4615139442231,-15.1233758926392,0.686802744865417
581,-16.1274336283186,-14.093282699585,1.22577905654907,-10.1270796460177,-15.0700521469116,0.600603938102722
582,-15.84,-14.0621480941772,1.23128247261047,-3.28,-14.9717721939087,0.717304050922394
583,-5.48,-13.9930629730225,1.45438456535339,-11.64,-14.9130373001099,1.1353931427002
584,-21.96,-14.0011034011841,0.576448261737823,-17.3427932960894,-14.9048938751221,1.39976525306702
585,-20.6774850299401,-14.0882863998413,1.53416991233826,-14.739880239521,-14.8978271484375,0.640536189079285
586,-14.6952226720648,-14.1206722259521,-0.065291166305542,-12.9867206477733,-14.8841991424561,0.668388366699219
587,-16.6469387755102,-14.1259069442749,1.52124333381653,-14.1987755102041,-14.8871259689331,0.585260987281799
588,-14.605625,-14.1454105377197,1.52155184745789,-11.0453125,-14.8820943832397,0.831615328788757
589,-13.2124886877828,-14.1381368637085,1.44378840923309,-18.8030769230769,-14.8829069137573,0.699251294136047
590,-13.84,-14.1208562850952,1.37721884250641,-11.72,-14.8389129638672,1.38637971878052
591,-13.786529209622,-14.1309118270874,1.72220206260681,-17.88,-14.8641309738159,1.13387382030487
592,-15.7210526315789,-14.1109409332275,1.38436925411224,-18.591052631579,-14.8846645355225,0.745759844779968
593,-5.23700934579439,-14.078875541687,1.1966438293457,-12.7459813084112,-14.872633934021,0.862831175327301
594,-15.9669841269841,-14.0525226593018,1.3278694152832,-7.73164021164021,-14.8319110870361,1.11387503147125
595,-13.68,-14.0247898101807,1.36006391048431,-3.52,-14.7359113693237,1.24941515922546
596,-13.72,-14.0494356155396,1.23369336128235,-15.8,-14.7191209793091,1.43121337890625
597,-7.52,-13.9730615615845,1.31580471992493,-11.72,-14.6833305358887,1.38480448722839
598,-14.7410101010101,-13.9521350860596,0.999499559402466,-18.329494949495,-14.6727266311646,0.859247803688049
599,-7.43292817679558,-13.9374217987061,1.58823752403259,-13.72,-14.6996603012085,1.82730007171631
600,-10.3568421052632,-13.909571647644,1.54119896888733,-17.88,-14.7278499603271,0.869420647621155
601,-8.78071942446043,-13.8741264343262,1.55272006988525,-16.7056115107914,-14.7978515625,0.414787888526917
602,-19.92,-13.9293260574341,1.23699474334717,-16.4319018404908,-14.784218788147,0.419880390167236
603,-17.0264285714286,-13.9323778152466,1.35033464431763,-9.94857142857143,-14.7529878616333,58.2581176757812
604,-9.48,-13.917444229126,1.36444115638733,-15.5598566308244,-14.7508525848389,0.916284024715424
605,-14.1581481481481,-13.8902978897095,1.42208647727966,-13.76,-14.6825876235962,0.688243865966797
606,-18.0136898395722,-13.9183559417725,0.00391495227813721,-7.30844919786096,-14.6700582504272,0.536313652992249
607,-14.6228571428571,-13.9093980789185,1.29583919048309,-18.7771428571429,-14.6894464492798,0.587832629680634
608,-9.72,-13.8568782806396,1.48599803447723,-17.88,-14.6837520599365,0.789705038070679
609,-19.92,-13.9248781204224,0.889680743217468,-8.13142857142857,-14.687294960022,0.878390729427338
610,-18.1553036437247,-13.922625541687,1.28331422805786,-18.8764372469636,-14.7155113220215,0.943635880947113
611,-17.88,-13.9087600708008,1.35134959220886,-9.6,-14.6605777740479,0.938158333301544
612,-13.3192307692308,-13.9281282424927,1.38726079463959,-14.1157692307692,-14.6358547210693,1.0802116394043
613,-11.2288721804511,-13.9048318862915,1.11680793762207,-12.5484210526316,-14.6075525283813,1.11986422538757
614,-5.56,-13.8338050842285,1.26379811763763,-13.8,-14.61692237854,0.931226789951324
615,-14.5402597402597,-13.8367834091187,1.57741248607635,-18.3518614718615,-14.6375112533569,0.88612973690033
616,-12.6243533123028,-13.8222637176514,1.48403763771057,-11.1352681388013,-14.5653467178345,0.929628431797028
617,-15.84,-13.8635969161987,0.0968722403049469,-15.5960784313726,-14.5639877319336,0.766620695590973
618,-15.84,-13.8604230880737,1.31850755214691,-18.8073873873874,-14.5599317550659,0.609097123146057
619,-5.56157099697885,-13.8124189376831,1.3621940612793,-22.1684592145015,-14.646653175354,0.613364934921265
620,-12.3685279187817,-13.8089275360107,1.36007821559906,-11.8531979695431,-14.6349802017212,0.587597846984863
621,-11.241897810219,-13.7865362167358,1.77947247028351,-7.70598540145985,-14.5755891799927,0.51702606678009
622,-18.5914427860697,-13.8560209274292,1.46162533760071,-16.1534328358209,-14.53542137146,0.563109636306763
623,-5.57009708737864,-13.8014221191406,1.47615611553192,-13.1439482200647,-14.5601139068604,0.75192666053772
624,-13.2867661691542,-13.8254671096802,1.07186686992645,-15.434328358209,-14.5987415313721,0.781749367713928
625,-18.4148837209302,-13.8151664733887,0.29829740524292,-19.1590697674419,-14.6174612045288,0.481464505195618
626,-11.3887769784173,-13.7963228225708,0.619905471801758,-8.48086330935252,-14.5838317871094,-0.290843188762665
627,-13.8,-13.8337240219116,0.405440896749496,-13.9636559139785,-14.5863265991211,1.36607575416565
628,-12.436812749004,-13.8518362045288,0.881987154483795,-12.4809561752988,-14.5775327682495,0.641547858715057
629,-11.8,-13.8586750030518,1.3273868560791,-5.64,-14.5339126586914,0.97725236415863
630,-13.72,-13.8347053527832,1.3989884853363,-18.0411494252874,-14.5691833496094,0.948834657669067
631,-13.9914410480349,-13.8464403152466,1.40974533557892,-7.65676855895197,-14.4738283157349,1.66116416454315
632,-13.4424309392265,-13.8126430511475,1.45018553733826,-20.5719337016575,-14.491774559021,-0.386347949504852
633,-14.51,-13.8081884384155,1.12434434890747,-13.8,-14.4621925354004,0.160697132349014
634,-7.56,-13.7682132720947,1.51540076732635,-9.69951219512195,-14.4031934738159,0.368528246879578
635,-9.3203187250996,-13.7255487442017,1.69428277015686,-20.96,-14.4233102798462,0.512730300426483
636,-13.8,-13.7388820648193,0.585935711860657,-10.6500900900901,-14.4025783538818,0.341397702693939
637,-17.88,-13.8210153579712,1.07074749469757,-10.7983333333333,-14.4111003875732,0.357252210378647
638,-19.92,-13.8445243835449,1.59053647518158,-11.9086486486487,-14.3796129226685,0.481660217046738
639,-16.1110344827586,-13.8460416793823,0.529090166091919,-15.3758620689655,-14.3626527786255,0.496045231819153
640,-10.0331313131313,-13.7871828079224,1.51747107505798,-7.99393939393939,-14.3247051239014,0.546400129795074
641,-15.72,-13.7769727706909,1.45926225185394,2.96,-14.2061853408813,1.5914990901947
642,-13.6367845659164,-13.737229347229,0.889078259468079,-16.4298392282958,-14.2567319869995,0.859015226364136
643,-10.5445197740113,-13.6949548721313,0.855275630950928,-10.7294915254237,-14.242639541626,-0.00185155868530273
644,5,-13.5522623062134,1.53794133663177,-11.76,-14.1869707107544,1.62455809116364
645,-15.22875,-13.5480451583862,1.53966629505157,-14.4701388888889,-14.2191715240479,1.35511445999146
646,-15.84,-13.5421390533447,1.53043162822723,-9.72,-14.1872005462646,1.61004018783569
647,-18.2120895522388,-13.5543308258057,1.51564526557922,-8.7444776119403,-14.1416044235229,1.62397587299347
648,-16.1190697674419,-13.5487928390503,1.53135716915131,-8.49395348837209,-14.0518312454224,1.19842767715454
649,-13.4023841059603,-13.5032014846802,1.34460496902466,-15.7075496688742,-14.0512161254883,-0.748234510421753
650,-8.51056603773585,-13.4460258483887,1.9130334854126,-12.7743396226415,-14.0475959777832,0.809880077838898
651,-7.52,-13.4133930206299,1.65279591083527,-5.56,-13.9914045333862,0.994353532791138
652,-10.5654498714653,-13.4467630386353,1.70424520969391,-17.88,-14.032205581665,1.13680052757263
653,-13.8,-13.4713325500488,1.45661771297455,-17.92,-14.0494632720947,0.452293545007706
654,-16.7011111111111,-13.4932079315186,1.51855432987213,-12.2140740740741,-14.0042905807495,0.609089732170105
655,-8.86256983240224,-13.4553174972534,0.403901219367981,-6.5591061452514,-13.9483041763306,0.057467132806778
656,-11.8629787234043,-13.4389905929565,0.345132976770401,-10.0970212765957,-13.9808101654053,0.38160640001297
657,-14.6222448979592,-13.4836053848267,1.35572957992554,-11.6459183673469,-13.9504261016846,1.40974175930023
658,-14.1214457831325,-13.474142074585,1.3061615228653,-20.9419277108434,-13.9746026992798,0.413345992565155
659,-7.52,-13.4434766769409,1.6002881526947,-7.68,-13.9140691757202,1.651606798172
660,-19.96,-13.4426288604736,-0.00197286903858185,-17.4777011494253,-13.8911199569702,-0.579420745372772
661,-11.1088372093023,-13.3929471969604,1.64597725868225,-21.96,-13.981162071228,1.50093221664429
662,-15.4922448979592,-13.3884181976318,1.45828449726105,-13.1232653061225,-13.984902381897,1.6832492351532
663,-18.7652867830424,-13.3915090560913,1.39394223690033,-16.4733167082294,-13.9616584777832,0.579312443733215
664,-16.2135408560311,-13.4204511642456,1.37014484405518,-19.92,-14.0384016036987,1.15082263946533
665,-15.2158415841584,-13.4338960647583,1.41130602359772,-10.4580858085809,-13.9851694107056,0.628649771213531
666,-10.5749112426036,-13.4209127426147,1.47718739509583,-8.75834319526627,-13.9571990966797,1.51077818870544
667,-19.92,-13.4439945220947,1.63764870166779,-14.1333333333333,-13.9319543838501,1.50923204421997
668,-16.030650887574,-13.4628372192383,1.72914600372314,-16.7408284023669,-13.9453563690186,0.782311260700226
669,-18.5581115879828,-13.475136756897,1.53080773353577,-17.84,-13.9800443649292,1.13531947135925
670,-15.9609638554217,-13.520001411438,1.16776251792908,-12.1018473895582,-13.9457292556763,0.952443480491638
671,-20.1018181818182,-13.6030797958374,0.514433145523071,-22.1145454545455,-13.9739599227905,0.421801209449768
672,-13.68,-13.588680267334,1.55092740058899,-19.0142281879195,-13.9962568283081,-0.93237978219986
673,-9.68,-13.572190284729,1.08264875411987,-11.68,-13.9501304626465,2.1991229057312
674,-11.02,-13.5128555297852,0.884318232536316,-22,-14.0031595230103,-1.04848694801331
675,-12.1568231046931,-13.4744348526001,1.79903340339661,-12.0590613718412,-13.9878339767456,1.08387839794159
676,-7.6,-13.4133825302124,1.5914306640625,-5.52,-13.8982191085815,1.34457731246948
677,-15.0218181818182,-13.4139451980591,0.575869083404541,-6.08181818181818,-13.867467880249,0.129010379314423
678,-9.62631578947368,-13.3679389953613,1.16374099254608,-12.7342105263158,-13.8149156570435,-0.0268411338329315
679,-12.5389898989899,-13.384202003479,1.52347803115845,-21.96,-13.849588394165,0.811442017555237
680,-11.68,-13.4193029403687,1.65680122375488,-7.6,-13.8332586288452,1.64088475704193
681,-17.2372990353698,-13.4699516296387,1.86569213867188,-11.648231511254,-13.8327798843384,1.30224633216858
682,-12.6272727272727,-13.4613733291626,1.76458179950714,-11.1781818181818,-13.8266878128052,1.50939345359802
683,-18.6869055374593,-13.5253477096558,1.58510637283325,-19.2341368078176,-13.8291749954224,1.68063139915466
684,-9.18022988505747,-13.4609909057617,1.48793947696686,-10.6259003831418,-13.7633628845215,0.746386289596558
685,-18.4812213740458,-13.4474964141846,0.345392644405365,-18.1624427480916,-13.7459897994995,0.233203619718552
686,-13.3004878048781,-13.4718990325928,0.421620965003967,-15.2282926829268,-13.7794809341431,1.42831897735596
687,-9.94806629834254,-13.4518508911133,1.61008310317993,-20.2680662983425,-13.7631025314331,0.389642864465714
688,-9.72,-13.4404716491699,1.60675430297852,-9.68,-13.7255392074585,1.5560097694397
689,-18.271061452514,-13.4377994537354,0.289763361215591,-12.4938547486034,-13.7040739059448,-0.398239374160767
690,-13.76,-13.4236650466919,1.54150056838989,-7.68,-13.6724739074707,1.59413206577301
691,-16.0246696035242,-13.4047660827637,1.69635057449341,-11.1605286343612,-13.6694192886353,1.2661327123642
692,-21.96,-13.4637079238892,0.630604982376099,-18.5072340425532,-13.6725568771362,-0.0616375356912613
693,-13.68,-13.4484281539917,1.59722912311554,-13.0415859030837,-13.6617803573608,1.62846732139587
694,-14.2844444444444,-13.5345916748047,0.0577784776687622,-17.84,-13.6751136779785,-0.00817707180976868
695,-11.487619047619,-13.5140037536621,1.16188359260559,-12.5714285714286,-13.6378078460693,0.840613424777985
696,-18.7641059602649,-13.5606985092163,1.58898174762726,-22.8043708609272,-13.725302696228,-0.58151388168335
697,-16.3453003533569,-13.6320657730103,0.167115449905396,-14.2228975265018,-13.7417221069336,-0.393901288509369
698,-16.231654676259,-13.5938777923584,1.59007596969604,-20.2725179856115,-13.8131399154663,-0.700188398361206
699,-8.72196721311475,-13.5511913299561,1.74416065216064,-13.0314754098361,-13.7742156982422,-0.266717314720154
700,-11.3857681940701,-13.576696395874,1.18793487548828,-15.137358490566,-13.8377981185913,0.109992831945419
701,-12.2720643431635,-13.5654897689819,0.627199470996857,-13.607399463807,-13.8195362091064,0.256565153598785
702,-15.0583979328165,-13.5453691482544,1.58155238628387,-15.4149870801034,-13.8378124237061,0.374219596385956
703,-18.8650374064838,-13.6346044540405,1.62845051288605,-17.8924688279302,-13.9616289138794,-0.392627596855164
704,-5.88488372093023,-13.5954360961914,1.14032804965973,-16.2062790697674,-13.9504718780518,0.208096385002136
705,-12.6203984063745,-13.6070251464844,1.2743992805481,-18.5252589641434,-13.9577178955078,0.0856689438223839
706,-11.76,-13.6109132766724,1.76006257534027,-13.8,-13.9293746948242,0.308378249406815
707,-7.26458874458874,-13.5635461807251,1.84450447559357,-13.8509090909091,-13.9025144577026,0.553844749927521
708,-9.64,-13.5763463973999,1.74683260917664,-11.9661971830986,-13.9041557312012,0.873310565948486
709,-12.43072319202,-13.533350944519,1.25255262851715,-15.2911720698254,-13.9291372299194,0.83304750919342
710,-21.96,-13.6704187393188,1.07991135120392,-17.0707692307692,-14.0058755874634,0.507033288478851
711,-8.01379310344828,-13.6064224243164,0.702393472194672,-16.5444334975369,-14.0103063583374,0.274748802185059
712,-13.5747368421053,-13.6413269042969,0.501598715782166,-17.8778947368421,-14.0534420013428,-0.193880513310432
713,-17.5625609756098,-13.675440788269,1.49888181686401,-16.4893902439024,-14.0657539367676,-0.25412181019783
714,-10.6509401709402,-13.6090784072876,1.53578686714172,-20.0765811965812,-14.1440286636353,-0.333910822868347
715,-11.72,-13.6086807250977,1.59247827529907,-5.36,-14.0605611801147,-0.0946449041366577
716,-15.8,-13.6173391342163,1.7679979801178,-11.76,-14.0507287979126,0.520785748958588
717,-14.9254480286738,-13.6386976242065,1.83913457393646,-11.1998566308244,-14.0436878204346,1.06909811496735
718,-8.95149501661129,-13.6103191375732,1.70395576953888,-12.563853820598,-14.011700630188,1.04698300361633
719,-15.8,-13.6443166732788,1.70640015602112,-9.68,-13.9508361816406,0.868133783340454
720,-10.9568729641694,-13.6344547271729,1.75671708583832,-19.96,-14.0019598007202,0.900745153427124
721,-18.5278048780488,-13.7166929244995,1.56713771820068,-16.3853658536585,-13.9881381988525,0.627987325191498
722,-10.7265671641791,-13.6554040908813,1.62596118450165,-14.9391044776119,-14.0237302780151,0.531741321086884
723,-12.5672727272727,-13.6264047622681,1.63568162918091,-12.3672727272727,-13.9628095626831,0.40872523188591
724,-13.3274261603376,-13.6232538223267,1.7219535112381,-4.4210970464135,-13.901083946228,1.01387929916382
725,-10.6189898989899,-13.5961132049561,1.65694916248322,-12.7810101010101,-13.8534898757935,1.51414632797241
726,-17.84,-13.5933885574341,1.3971506357193,-21.96,-13.8534898757935,1.26839339733124
727,-13.8378861788618,-13.5847330093384,0.68712443113327,-12.3291056910569,-13.8490915298462,0.74109548330307
728,-3.48,-13.528582572937,1.51804053783417,-9.72,-13.7991733551025,1.38639140129089
729,-16.7880968858132,-13.5156297683716,1.57371985912323,-15.6754325259516,-13.8057355880737,1.09325110912323
730,-11.8,-13.4443111419678,1.5509706735611,-11.76,-13.7543926239014,1.30484211444855
731,-17.88,-13.4559946060181,1.64958453178406,-7.64,-13.7378120422363,1.5412894487381
732,-18.3622604422604,-13.4728097915649,1.59905683994293,-19.92,-13.8487453460693,0.365786373615265
733,-18.6985714285714,-13.5609331130981,-0.0261506959795952,-20.6414285714286,-13.9087553024292,-0.199034988880157
734,-18.0835087719298,-13.5350904464722,0.237030610442162,-14.6140350877193,-13.8905630111694,0.779604196548462
735,-15.84,-13.5028400421143,1.39944636821747,-9.48,-13.8554964065552,0.838198363780975
736,-17.165140562249,-13.5193061828613,1.38013923168182,-19.92,-13.9017190933228,0.962920546531677
737,-18.6075449101796,-13.5323762893677,-0.158631563186646,-17.92,-13.9265270233154,0.93479311466217
738,-14.2593548387097,-13.530068397522,1.71189403533936,-6.61677419354839,-13.8970031738281,0.808094322681427
739,-8.10293838862559,-13.4960041046143,-0.0119618326425552,-15.84,-13.8772497177124,0.736189961433411
740,-13.821320754717,-13.4958801269531,1.53735423088074,-12.0996226415094,-13.8797817230225,0.784931182861328
741,-14.2633112582781,-13.499059677124,1.6201788187027,-16.8733774834437,-13.8730697631836,0.890853941440582
742,-12.5449462365591,-13.4778861999512,1.71166825294495,-8.94594982078853,-13.8087692260742,0.938809931278229
743,0.720000000000001,-13.4381723403931,1.82505905628204,-17.88,-13.84299659729,1.05340695381165
744,-8.13493975903614,-13.3859586715698,1.14962267875671,-9.52,-13.8549184799194,1.21775305271149
745,-16.4521212121212,-13.4044399261475,1.81627595424652,-10.1369696969697,-13.8990316390991,1.13793313503265
746,-12.8895760598504,-13.3989028930664,0.391475915908813,-13.6004987531172,-13.8843688964844,0.799951672554016
747,-6.51126050420168,-13.3921775817871,1.84756648540497,-16.1845378151261,-13.9141311645508,0.611766159534454
748,-12.4013930348259,-13.3765802383423,1.85637784004211,-11.5948258706468,-13.8692350387573,1.05148673057556
749,-13.76,-13.4187612533569,1.88826465606689,-16.1220600858369,-13.8852472305298,-0.998712480068207
750,-13.76,-13.4414482116699,1.03264439105988,-17.84,-13.8849821090698,0.417169034481049
751,-9.56,-13.4466438293457,1.24239993095398,-21.96,-13.9200115203857,0.707799673080444
752,-16.1587755102041,-13.4215688705444,1.53872931003571,-16.5448979591837,-13.9207649230957,0.296672463417053
753,-14.2710344827586,-13.4032001495361,2.00013852119446,-11.68,-13.9323081970215,0.697512030601501
754,-17.2155704697987,-13.4547700881958,0.746282815933228,-9.39503355704698,-13.8912076950073,0.815268814563751
755,-20.8196655518395,-13.4991807937622,1.86546576023102,-15.1344481605351,-13.9003715515137,1.20017635822296
756,-14.7030136986301,-13.4771089553833,0.173805832862854,-15.8,-13.9569826126099,-0.656098306179047
757,-19.0716666666667,-13.5067682266235,1.5075181722641,-10.0566666666667,-13.8988456726074,1.05483496189117
758,-13.057619047619,-13.5290193557739,0.0973633378744125,-13.9061904761905,-13.872353553772,0.558664083480835
759,-13.3612556053812,-13.485294342041,0.883146047592163,-13.7338116591928,-13.9097023010254,0.104972720146179
760,0.720000000000001,-13.3594598770142,1.81571638584137,-7.32,-13.8326597213745,1.66914224624634
761,-6.44523364485981,-13.2832279205322,1.94967305660248,-16.0616822429907,-13.8757371902466,1.20899939537048
762,-7.52,-13.2445659637451,1.92682933807373,0.920000000000001,-13.7754983901978,1.44417715072632
763,-11.76,-13.2481069564819,1.70899069309235,-5.52,-13.7286424636841,1.27081859111786
764,-8.39425414364641,-13.2670021057129,0.586961269378662,-7.81127071823204,-13.6887178421021,0.314001679420471
765,-15.2281647940075,-13.2715873718262,1.90000462532043,-16.8250187265918,-13.6785383224487,1.47409105300903
766,-7.64,-13.2383584976196,1.90088093280792,-1.44,-13.6139030456543,1.56049954891205
767,-20.6670930232558,-13.2705392837524,1.89256572723389,-7.43127906976744,-13.5594711303711,1.4226233959198
768,-9.05666666666667,-13.2253170013428,1.68940913677216,-7.6,-13.4847555160522,1.30915069580078
769,-16.2388764044944,-13.2964992523193,0.612927913665771,-19.88,-13.4694986343384,1.42489647865295
770,-17.0121854304636,-13.3274564743042,1.61298000812531,-14.1639735099338,-13.4849042892456,1.36314904689789
771,-10.1886937901499,-13.3204355239868,0.518768906593323,-16.8371734475375,-13.5457782745361,0.833939552307129
772,-17.9755056179775,-13.3163299560547,1.43771636486053,-15.84,-13.5436887741089,0.965396702289581
773,-18.6582413087935,-13.4035835266113,0.175967693328857,-0.883680981595092,-13.4619541168213,0.00957560539245605
774,-6.08689655172414,-13.3555841445923,1.50633347034454,-16.1227586206897,-13.4665441513062,1.33027958869934
775,-15.3866666666667,-13.3353958129883,0.35099720954895,-14.1961904761905,-13.4334573745728,0.165901809930801
776,-10.0221926910299,-13.3262853622437,1.52606642246246,-11.8527574750831,-13.4559373855591,1.30430710315704
777,-15.84,-13.3398857116699,0.934554755687714,-12.6397315436242,-13.4471120834351,1.15371668338776
778,-13.76,-13.348708152771,-0.0944986641407013,-18.4856338028169,-13.4871425628662,1.24834799766541
779,-17.84,-13.388973236084,1.7348450422287,-5.52,-13.4863424301147,1.30807387828827
780,-17.88,-13.4167070388794,1.86924946308136,-13.8,-13.4580669403076,1.44195652008057
781,-5.54734463276836,-13.3604135513306,1.56140542030334,-19.88,-13.5395555496216,1.52204656600952
782,-22.9194594594595,-13.4235935211182,1.6287305355072,-11.64,-13.4800100326538,1.38624751567841
783,-7.6,-13.3775262832642,1.9671813249588,-5.48,-13.4245433807373,1.27004754543304
784,-14.7152542372881,-13.4252281188965,1.76760900020599,-16.4247457627119,-13.4693775177002,1.35974609851837
785,-12.3963636363636,-13.4457359313965,0.355039268732071,-10.2533333333333,-13.3979997634888,1.04014205932617
786,-20.721749271137,-13.4918804168701,0.95612895488739,-16.7196501457726,-13.4384632110596,-0.520611822605133
787,-17.7677108433735,-13.4911317825317,0.783565878868103,-12.2061044176707,-13.4478492736816,0.89421671628952
788,-14.9352380952381,-13.4579000473022,1.18175053596497,-10.1149206349206,-13.4358911514282,0.631860077381134
789,-10.3020689655172,-13.4191741943359,1.74415135383606,-13.2951724137931,-13.4220199584961,1.23155117034912
790,-10.758347107438,-13.4240083694458,1.57839906215668,-18.280826446281,-13.4905986785889,1.56469082832336
791,-10.3639263803681,-13.3883008956909,1.87974512577057,-14.2569325153374,-13.6053781509399,1.06505537033081
792,-15.935593220339,-13.4036264419556,1.89793193340302,-16.6535593220339,-13.6068706512451,0.676332056522369
793,-6.68382470119522,-13.3778886795044,1.93966710567474,-9.52,-13.5988073348999,0.97562563419342
794,-13.1320634920635,-13.4987697601318,1.4441956281662,-15.922328042328,-13.6265563964844,1.07593619823456
795,-17.88,-13.5164432525635,1.83040082454681,-15.0065979381443,-13.6301326751709,1.1223247051239
796,-13.3268449197861,-13.4996891021729,1.63028800487518,-13.84,-13.6575994491577,-0.204809486865997
797,-19.92,-13.5110759735107,1.7362802028656,-16.7371428571429,-13.7108840942383,0.933840155601501
798,-7.56,-13.4540157318115,1.88354229927063,-5.97890410958904,-13.6941165924072,1.09037458896637
799,-14.1826737967914,-13.4592170715332,1.88084101676941,-13.84,-13.6816663742065,1.12459480762482
800,-5.52,-13.4392805099487,1.87783741950989,-19.92,-13.729305267334,1.14337432384491
801,-14.947619047619,-13.4887981414795,1.26074624061584,-9.6,-13.7562389373779,1.00096201896667
802,3.48,-13.3951606750488,2.0428295135498,-11.76,-13.7154378890991,1.19176018238068
803,-14.1777215189873,-13.3976793289185,1.86227536201477,-14.7620253164557,-13.6943826675415,1.37308084964752
804,-16.0345276872964,-13.393235206604,1.95853996276855,-10.8582410423453,-13.6853446960449,1.41188490390778
805,-13.8565217391304,-13.4265279769897,1.22993433475494,-10.1008695652174,-13.7089567184448,0.972368121147156
806,-11.9389928057554,-13.4270343780518,2.3387565612793,-15.0158273381295,-13.7417478561401,1.29411935806274
807,-7.65502935420744,-13.3805875778198,1.63833689689636,-13.7982778864971,-13.7560968399048,1.0793114900589
808,-12.7782945736434,-13.3716325759888,1.50689363479614,-16.848992248062,-13.7288122177124,0.75485372543335
809,-20.5727331189711,-13.4586505889893,1.09217059612274,-14.4223794212219,-13.7737598419189,-0.000872552394866943
810,-17.6679301745636,-13.4433708190918,0.703029811382294,-14.6703241895262,-13.7550458908081,0.72407603263855
811,-16.2878048780488,-13.4778966903687,1.14848160743713,-12.1278048780488,-13.6894969940186,1.11462020874023
812,-12.18,-13.4558153152466,1.25838005542755,-16.4780392156863,-13.7118616104126,1.2388277053833
813,-8.36307692307692,-13.3864679336548,1.50918364524841,-15.5542857142857,-13.705735206604,1.27362787723541
814,-15.84,-13.3839778900146,1.84073626995087,-18.2533333333333,-13.6946239471436,0.697589218616486
815,-16.238361774744,-13.390793800354,1.83626425266266,-10.6917406143345,-13.6961812973022,1.18547320365906
816,-14.8748898678414,-13.4194612503052,1.74653077125549,-14.2662555066079,-13.7329015731812,1.04152154922485
817,-17.863569023569,-13.4057521820068,0.0450316667556763,-13.8311111111111,-13.7308874130249,1.0316641330719
818,-11.8257510729614,-13.3777189254761,2.16134452819824,-12.7615450643777,-13.7043590545654,0.95837938785553
819,-3.4,-13.2766637802124,1.88446414470673,-9.68,-13.6499576568604,1.29494261741638
820,-10.1885714285714,-13.2381811141968,1.77493405342102,-8.57795918367347,-13.62646484375,1.13829779624939
821,-10.0044444444444,-13.1708650588989,1.89297819137573,-18.5066666666667,-13.6024122238159,1.48369324207306
822,-18.8480365296804,-13.2053194046021,1.77945578098297,-8.65132420091324,-13.5333271026611,1.39425325393677
823,-16.4340425531915,-13.2503471374512,1.82382833957672,-17.88,-13.5746603012085,1.21690726280212
824,-7.68,-13.2280797958374,1.53091275691986,-11.64,-13.5055923461914,1.15272545814514
825,-7.64,-13.1979675292969,1.6679949760437,-5.32,-13.4606657028198,1.36851859092712
826,-14.6547717842324,-13.2449979782104,1.84599936008453,-12.9078838174274,-13.5099182128906,1.59680640697479
827,-7.52,-13.1949872970581,1.83871841430664,-3.56,-13.4931058883667,1.64488005638123
828,-10.9815075376884,-13.2040214538574,0.837811827659607,-12.1123618090452,-13.4889612197876,1.12745106220245
829,-14.515,-13.2171945571899,2.24724817276001,-14.0175,-13.4360103607178,0.89613151550293
830,-11.592,-13.2166080474854,1.94266796112061,-13.416,-13.4747838973999,1.51666176319122
831,-10.2786206896552,-13.1702165603638,1.65216267108917,-12.5944827586207,-13.4810934066772,1.41871571540833
832,-16.7058008658009,-13.1974067687988,1.89338850975037,-19.967619047619,-13.5396890640259,1.31144571304321
833,-13.9092537313433,-13.1655569076538,1.83527028560638,-16.2691044776119,-13.5199222564697,1.22803854942322
834,-9.07862068965517,-13.1648788452148,1.79980981349945,-13.7875862068966,-13.5409994125366,1.10140824317932
835,-3.44,-13.064603805542,1.92341244220734,-11.72,-13.4980497360229,1.12958443164825
836,-11.72,-13.05406665802,1.98891377449036,-9.6,-13.4605283737183,1.88563418388367
837,2.8,-12.9690799713135,2.07495379447937,-9.72,-13.3902072906494,1.7534863948822
838,-1.48,-12.9141464233398,2.09470176696777,-11.72,-13.4038076400757,1.28640723228455
839,-11.64,-12.8699407577515,1.36336541175842,-13.8,-13.4125156402588,0.74220734834671
840,-11.68,-12.8560733795166,1.94938552379608,-9.64,-13.4255819320679,1.78195452690125
841,-17.88,-12.8684415817261,0.63084864616394,-16.24,-13.4594459533691,0.879343688488007
842,-16.8468027210884,-12.8343534469604,1.95801413059235,-8.96816326530612,-13.3958520889282,1.29622435569763
843,-18.5458354114713,-12.8667936325073,1.38117074966431,-14.5005486284289,-13.4055786132812,1.20658159255981
844,-14.3305164319249,-12.8671007156372,1.80687129497528,-20.2627230046948,-13.4217290878296,0.820350229740143
845,-7.52,-12.8406496047974,1.80746424198151,-15.8,-13.4432525634766,0.504306375980377
846,-5.52,-12.7523555755615,1.8803471326828,-7.68,-13.3424234390259,0.581715762615204
847,-13.9634042553192,-12.736475944519,1.85219120979309,-18.6442553191489,-13.3718996047974,0.719983041286469
848,-12.4384745762712,-12.7111883163452,1.67567026615143,-13.68,-13.3279495239258,0.853466153144836
849,-17.5432967032967,-12.7699966430664,0.666058957576752,-12.64,-13.3253393173218,0.787339866161346
850,-21.96,-12.8404912948608,1.01810920238495,-19.92,-13.3572235107422,0.788212656974792
851,-17.92,-12.8781442642212,1.30085754394531,-12.4987919463087,-13.34983253479,0.66785740852356
852,-3.61131313131313,-12.8018312454224,1.09697198867798,-12.0226262626263,-13.3272171020508,0.542661726474762
853,-16.4080586080586,-12.7854509353638,1.79034864902496,-8.74065934065934,-13.2662057876587,0.73321920633316
854,-9.64,-12.8104848861694,1.27447092533112,-16.543196347032,-13.2684516906738,0.853014528751373
855,-14.6098402555911,-12.823748588562,2.13191771507263,-7.96370607028754,-13.1980419158936,0.928080379962921
856,-13.76,-12.8370819091797,1.82741045951843,-7.6,-13.1567087173462,0.97627204656601
857,-11.68,-12.8665170669556,2.11199045181274,-3.4,-13.0870361328125,1.12949895858765
858,-10.3301149425287,-12.8711175918579,1.96490061283112,-14.064367816092,-13.1010236740112,1.43985104560852
859,-12.4361290322581,-12.8711547851562,1.96350574493408,-17.0348387096774,-13.1126480102539,1.39284121990204
860,-9.95357142857143,-12.7911109924316,1.94666588306427,-10.68,-13.0700426101685,1.01334571838379
861,-11.64,-12.8152856826782,0.544898152351379,-12.206779661017,-13.0411243438721,0.620675265789032
862,-11.0913080168776,-12.7987298965454,1.58618903160095,-14.3822784810127,-13.0178203582764,0.34629425406456
863,-15.84,-12.7872467041016,2.0075352191925,-13.8,-12.9998912811279,-0.0522365607321262
864,-8.17573573573573,-12.7707443237305,2.0939884185791,-15.3805405405405,-12.9685850143433,0.291394948959351
865,-11.900243902439,-12.7719469070435,1.86205947399139,-10.8080487804878,-13.0049057006836,0.574368953704834
866,5.64,-12.6290140151978,2.12433838844299,-5.36,-12.9622383117676,0.786464035511017
867,-17.4257740585774,-12.6456823348999,1.90201425552368,-9.64,-12.9518394470215,1.13830173015594
868,-13.68,-12.6772050857544,1.93046867847443,-1.36,-12.8771467208862,1.35425400733948
869,-14.3136363636364,-12.6672964096069,2.43556642532349,-21.96,-12.9590139389038,1.34939825534821
870,-1.69180327868852,-12.6055297851562,2.05077147483826,-14.144262295082,-12.920241355896,1.17151486873627
871,-14.3270758122744,-12.5775241851807,2.00854015350342,-12.2945848375451,-12.8929691314697,0.915351867675781
872,-14.3778443113772,-12.6018657684326,0.643003582954407,-17.84,-12.9123086929321,0.831307470798492
873,-3.52,-12.5415506362915,1.94052088260651,-11.64,-12.9074611663818,0.759314477443695
874,-15.4453865336658,-12.5556707382202,1.96280264854431,-19.8177556109726,-13.010106086731,0.679894804954529
875,-17.64,-12.6024770736694,2.30565118789673,-13.5244444444444,-13.015061378479,0.606105268001556
876,-12.0435294117647,-12.5638341903687,1.34804892539978,-13.8,-12.9606609344482,0.449190348386765
877,-16.6235365853659,-12.582405090332,1.90206170082092,-7.12256097560976,-12.925950050354,0.620337724685669
878,-17.84,-12.6781377792358,2.03965497016907,-10.0141176470588,-12.9279117584229,0.85201632976532
879,-9.4837037037037,-12.6294412612915,2.01760292053223,-17.92,-12.9428749084473,0.838601112365723
880,-13.9212182741117,-12.6435842514038,1.82546353340149,-12.8215228426396,-12.9499521255493,0.71168065071106
881,-14.9443575418994,-12.6240129470825,2.04901123046875,-14.5356424581006,-12.9959239959717,0.701364457607269
882,-3.4,-12.5242643356323,1.88907957077026,-3.36,-12.8855228424072,0.83425235748291
883,-7.6,-12.4502744674683,1.33436024188995,-7.52,-12.7980470657349,1.13102984428406
884,-5.64,-12.3673181533813,1.7804536819458,-13.68,-12.7918195724487,1.44147300720215
885,-14.4118518518519,-12.3577966690063,1.16415739059448,-18.8281481481481,-12.8541402816772,1.43405497074127
886,-14.0808988764045,-12.3372354507446,1.97900366783142,-18.0373033707865,-12.841588973999,1.10676062107086
887,-15.1814463840399,-12.3143939971924,1.55841219425201,-11.1688778054863,-12.7965822219849,0.7867591381073
888,-10.8884012539185,-12.2919216156006,1.38793253898621,-10.5122257053292,-12.8225517272949,0.603007912635803
889,-13.4396116504854,-12.3274993896484,1.46092855930328,-18.4479611650485,-12.8399381637573,0.537578225135803
890,-5.52,-12.2721576690674,1.6508709192276,-9.72,-12.8240737915039,0.586881875991821
891,-9.68,-12.2416019439697,1.83297157287598,-7.68,-12.7627849578857,0.800091624259949
892,-7.64,-12.2089023590088,1.91615438461304,-5.56,-12.7402114868164,1.19704115390778
893,-8.69661835748792,-12.2716798782349,1.96244716644287,-11.9029951690821,-12.700364112854,1.34819567203522
894,-16.1037974683544,-12.3248043060303,1.62313604354858,-18.9349367088608,-12.7631311416626,1.16694605350494
895,-12.066273458445,-12.2955665588379,1.96849632263184,-21.96,-12.8419513702393,0.743464171886444
896,-10.5747945205479,-12.2801351547241,1.05628871917725,-16.4520547945205,-12.8609619140625,0.372546643018723
897,-11.6,-12.3140592575073,1.96518278121948,-1.24,-12.7613315582275,0.383514523506165
898,-10.2389519650655,-12.2996425628662,2.03505516052246,-12.4282969432314,-12.7668876647949,0.832009434700012
899,-17.3022356495468,-12.3232574462891,0.86435604095459,-20.4426586102719,-12.7956914901733,1.08745288848877
900,-12.6622988505747,-12.3159399032593,1.86476838588715,-16.7250574712644,-12.7882595062256,0.879350304603577
901,-12.7268874172185,-12.3370532989502,1.92737710475922,-11.8392052980132,-12.7207870483398,0.582154512405396
902,-18.0773684210526,-12.3498430252075,1.87533140182495,-18.059298245614,-12.7308826446533,0.516229093074799
903,-9.68,-12.3192367553711,1.93180501461029,-5.24,-12.6879501342773,0.387775957584381
904,-5.48,-12.2409992218018,2.08128929138184,-5.56,-12.6623830795288,0.632443308830261
905,-20.9698753117207,-12.242000579834,2.05065584182739,-24,-12.7214860916138,1.02575612068176
906,-14.7638910505837,-12.2424068450928,1.78210091590881,-20.1884824902724,-12.7507419586182,0.923833966255188
907,-14.2647058823529,-12.2103595733643,1.64498031139374,-8.26,-12.7387647628784,0.670002102851868
908,-13.8,-12.2153081893921,2.08413791656494,-10.3755072463768,-12.7152271270752,0.739527106285095
909,-9.03840637450199,-12.1864891052246,1.90523636341095,-13.2060557768924,-12.711709022522,0.883855402469635
910,-11.1137459283388,-12.2653818130493,0.375477850437164,-12.4822149837134,-12.7461242675781,0.213125765323639
911,-9.64,-12.2866792678833,2.21775221824646,-12.2875590551181,-12.7209625244141,0.89955073595047
912,-17.2858598726115,-12.35178565979,2.05984568595886,-9.51898089171975,-12.7905559539795,0.962648272514343
913,-15.8,-12.378719329834,2.1370415687561,-8.30683544303797,-12.8091344833374,1.09154856204987
914,-10.8778021978022,-12.3952770233154,2.11510324478149,-21.96,-12.9034605026245,1.19326269626617
915,-19.88,-12.4262886047363,1.86866009235382,-11.8514285714286,-12.8703031539917,0.733222007751465
916,-17.88,-12.4945554733276,1.96358871459961,-18.7728859060403,-12.9858551025391,1.1636575460434
917,-12.1775510204082,-12.4379577636719,1.96147966384888,-15.5465306122449,-13.0399570465088,1.06039392948151
918,-1.36,-12.3866472244263,1.9443644285202,-3.32,-13.0114231109619,1.05002176761627
919,-8.64641975308642,-12.3360300064087,0.649614095687866,-18.5837037037037,-13.002781867981,1.1229692697525
920,-12.4586301369863,-12.3056735992432,1.75928425788879,-18.4690410958904,-13.0314826965332,-0.558832466602325
921,-11.9485714285714,-12.3174066543579,0.778593063354492,-10.38,-12.9884347915649,0.446190714836121
922,-8.64,-12.2551689147949,1.94886100292206,-13.3138566552901,-12.9715938568115,1.36615800857544
923,-19.96,-12.2638473510742,1.81929755210876,-6.56621621621622,-13.0094776153564,1.44542491436005
924,-7.34296296296296,-12.2722215652466,1.92452788352966,-12.5777777777778,-12.9858436584473,1.10427284240723
925,-7.56,-12.2200441360474,2.04637932777405,-11.68,-12.969069480896,1.37028884887695
926,-14.7101298701299,-12.2512969970703,1.81909573078156,-18.4449350649351,-13.0130167007446,1.36004960536957
927,-21.96,-12.2920961380005,2.08796787261963,-16.0707142857143,-13.0358905792236,1.33736789226532
928,-14.4381120943953,-12.2966175079346,1.84805381298065,-13.3938643067847,-13.0019445419312,1.36210405826569
929,-18.9848275862069,-12.3042497634888,1.18105745315552,-14.2289655172414,-13.0600051879883,1.27832639217377
930,-13.8813008130081,-12.2775907516479,1.27648329734802,-14.7619512195122,-13.0664186477661,0.99629819393158
931,-15.76,-12.3456754684448,1.90302848815918,-12.0933333333333,-13.0145072937012,0.843342900276184
932,-16.9987577639752,-12.3062047958374,1.94737505912781,-17.0667080745342,-13.050684928894,0.882594764232635
933,-13.0447682119205,-12.3425025939941,1.80713927745819,-16.2903311258278,-13.1227531433105,0.977408170700073
934,-12.3977777777778,-12.3270530700684,1.92512953281403,-11.5148148148148,-13.0900201797485,1.04357850551605
935,-11.1654368932039,-12.3188467025757,1.80636835098267,-4.77378640776699,-13.0534906387329,0.820326864719391
936,-10.7801801801802,-12.2525701522827,1.93474006652832,-10.4857657657658,-13.0119314193726,1.1630345582962
937,-13.3081967213115,-12.2228403091431,1.95770287513733,-14.8163934426229,-13.029333114624,1.23326504230499
938,-17.9228571428571,-12.2427577972412,2.10789752006531,-7.79333333333333,-13.0138568878174,1.20364594459534
939,-14.3663716814159,-12.2698526382446,2.09701991081238,-14.2463716814159,-13.0201978683472,1.15579497814178
940,-9.64,-12.262396812439,2.13456273078918,-7.28,-12.9468584060669,1.24328684806824
941,-11.2930693069307,-12.268590927124,2.16265153884888,-13.1127392739274,-12.93922996521,1.46087944507599
942,-8.43452054794521,-12.2185840606689,2.12892246246338,-11.5430136986301,-12.9051599502563,1.55879187583923
943,13.48,-12.0841588973999,2.28306150436401,-5.36,-12.8774271011353,1.50417673587799
944,-11.3601646090535,-12.0723457336426,2.18027114868164,-10.9669135802469,-12.8443908691406,1.5002247095108
945,-11.3119444444444,-12.0285587310791,2.2487359046936,-7.04222222222222,-12.7912950515747,1.48424875736237
946,-7.56,-11.9901132583618,2.18372941017151,1,-12.6923608779907,1.64768636226654
947,-11.72,-11.9354467391968,2.20473599433899,-1.4,-12.5901136398315,1.54894578456879
948,-10.7932219570406,-11.9570016860962,2.22368907928467,-12.0475417661098,-12.6305713653564,1.66734170913696
949,-21.0369590643275,-12.0026969909668,0.249586224555969,-11.72,-12.6164379119873,1.57775866985321
950,-16.5971884984026,-12.0765447616577,0.746103644371033,-10.8732268370607,-12.5561265945435,-0.178659126162529
951,-11.9448275862069,-12.0565252304077,2.1059947013855,-11.2231034482759,-12.5669469833374,1.70852780342102
952,-13.1315710723192,-12.1672687530518,1.79452419281006,-12.2386034912718,-12.5701379776001,1.60159778594971
953,-6.17506849315068,-12.1139192581177,1.76316058635712,-12.3775342465753,-12.5542411804199,1.32433998584747
954,-20.18,-12.1415548324585,0.73211932182312,-13.78,-12.5737190246582,0.730079650878906
955,-16.8819672131148,-12.1617250442505,0.408753156661987,-19.0111475409836,-12.6331205368042,0.120191872119904
956,-16.7228828828829,-12.1936178207397,2.03402495384216,-19.92,-12.6658153533936,0.740588366985321
957,-17.1129411764706,-12.2566699981689,1.70504021644592,-14.3751633986928,-12.6696615219116,1.01823532581329
958,-20.3898795180723,-12.3074140548706,1.94049429893494,-20.6910843373494,-12.6952753067017,0.891978204250336
959,-12.8897902097902,-12.2561941146851,1.8148934841156,-5.21818181818182,-12.6339139938354,1.11761236190796
960,-8.25714285714286,-12.193455696106,1.8851957321167,-9.95428571428572,-12.6024732589722,1.2418133020401
961,-13.8876288659794,-12.177453994751,1.71828091144562,-17.88,-12.6408214569092,1.35958826541901
962,-22.5985281385281,-12.2469120025635,0.606323480606079,-16.221038961039,-12.6391086578369,1.23166704177856
963,-10.9429787234043,-12.2641115188599,1.87413334846497,-16.3212765957447,-12.6442213058472,0.75216406583786
964,-16.2295302013423,-12.2667083740234,1.82275295257568,-13.2904697986577,-12.6111364364624,1.36203515529633
965,2.88,-12.1392517089844,1.46827435493469,-9.52,-12.6033248901367,1.36404347419739
966,-1.32,-12.0488862991333,2.29528164863586,-13.76,-12.599949836731,1.48389947414398
967,-9.68,-11.9943284988403,2.31261229515076,-11.64,-12.5853424072266,1.60205209255219
968,-11.4378616352201,-11.9917430877686,1.43890631198883,-21.96,-12.6466646194458,1.33376014232635
969,-13.4068085106383,-12.0584554672241,2.25229287147522,-14.6476595744681,-12.6797828674316,1.41752743721008
970,-11.9751624548736,-12.0703659057617,2.11862874031067,-15.3881588447653,-12.7251834869385,1.54315626621246
971,-9.6,-12.0676689147949,2.10064554214478,-3.56,-12.6255397796631,1.41399586200714
972,-11.76,-12.0204162597656,2.2136538028717,-11.72,-12.6459980010986,1.52072858810425
973,-15.953074204947,-12.0172090530396,2.59845232963562,-12.2571024734982,-12.6085119247437,1.06064581871033
974,-14.3641025641026,-12.0617704391479,1.64834833145142,-12.1891575091575,-12.6121730804443,-0.00456586480140686
975,-5.12093023255814,-12.044976234436,2.25401163101196,-9.12837209302326,-12.6375617980957,1.63647842407227
976,-13.8,-12.0392780303955,2.09317708015442,-11.9873929961089,-12.6314249038696,1.49645292758942
977,-10.9097520661157,-12.0618753433228,2.0749659538269,-16.5631955922865,-12.7181129455566,1.43007504940033
978,-17.2315492957747,-12.1035432815552,0.658101320266724,-11.9115492957746,-12.7167739868164,1.28374910354614
979,-1.36,-12.0158433914185,2.09536647796631,-11.68,-12.7011909484863,1.25424039363861
980,-16.6364575645756,-12.0494728088379,2.19649791717529,-16.9174907749078,-12.724534034729,1.34515225887299
981,-19.0655639097744,-12.1080522537231,0.808670818805695,-12.0435087719298,-12.7208614349365,1.22643899917603
982,-11.7803045685279,-12.0752153396606,1.87717986106873,-17.88,-12.7069435119629,1.11994397640228
983,-10.8367245657568,-12.0547323226929,1.94347822666168,-14.0354342431762,-12.6920528411865,1.48108339309692
984,-10.0029166666667,-12.0608940124512,2.1307475566864,-10.9404166666667,-12.6730709075928,1.23871982097626
985,-21.0356886227545,-12.1781978607178,1.82178735733032,-16.6614371257485,-12.7060136795044,1.12920236587524
986,-17.88,-12.2192649841309,1.60620284080505,-19.96,-12.7750806808472,0.978626608848572
987,-10.3928205128205,-12.3072175979614,2.34686231613159,-17.92,-12.8297472000122,0.890623152256012
988,-5.36,-12.3330841064453,1.70968341827393,-11.76,-12.8300142288208,0.841912388801575
989,-20.9229850746269,-12.3949708938599,1.35486662387848,-11.0191044776119,-12.8114748001099,0.933670461177826
990,-12.9030927835052,-12.4031248092651,1.29329180717468,-13.8979381443299,-12.8398609161377,0.864543914794922
991,-18.3121568627451,-12.406005859375,1.24453282356262,-12.6350326797386,-12.8158273696899,0.755616724491119
992,-14.058969072165,-12.3874206542969,1.45639657974243,-13.6169072164948,-12.8468198776245,0.945335626602173
993,-13.7152644836272,-12.3552160263062,1.48638105392456,-12.03959697733,-12.8304138183594,0.870790123939514
994,-16.6392156862745,-12.3706083297729,1.18249487876892,-11.9490196078431,-12.7749881744385,0.538666427135468
995,-16.7820289855072,-12.432354927063,2.60407900810242,-18.6133333333333,-12.7937440872192,0.214192181825638
996,-14.5390243902439,-12.4924821853638,1.87372124195099,-13.8941463414634,-12.8351716995239,0.318509817123413
997,-5.36,-12.4351253509521,1.8438446521759,-7.28,-12.75940990448,0.6142258644104
998,-1.36,-12.3612689971924,2.25253653526306,-9.68,-12.7327432632446,1.15556132793427
999,-10.1585185185185,-12.3120365142822,2.36319327354431,-18.6577777777778,-12.7728624343872,1.41302478313446
1000,-5.6,-12.2029695510864,2.33796238899231,0.720000000000001,-12.6352624893188,1.37733840942383
1001,-8.16773480662983,-12.1379547119141,2.24417567253113,-19.88,-12.6844701766968,1.39078438282013
1002,-11.7025641025641,-12.1918973922729,0.477077513933182,-16.2700854700855,-12.7127866744995,0.290040194988251
1003,-3.16,-12.1035766601562,2.27354645729065,-11.72,-12.7326488494873,1.39798748493195
1004,-13.3093706293706,-12.1280384063721,2.36625289916992,-16.6142657342657,-12.7331228256226,1.47141993045807
1005,-17.2716981132075,-12.1457843780518,2.2641499042511,-11.72,-12.7581644058228,1.37028527259827
1006,-17.88,-12.1732511520386,2.16494822502136,-16.3430674846626,-12.8164510726929,1.23700380325317
1007,-13.1129203539823,-12.182804107666,0.793872117996216,-4.61699115044248,-12.8245649337769,1.18522489070892
1008,-13.8,-12.2059364318848,2.25009775161743,-9.64,-12.7950687408447,1.30431127548218
1009,-13.97,-12.2161617279053,1.63452553749084,-5.7695652173913,-12.7199678421021,1.45724308490753
1010,-14.9463354037267,-12.2494478225708,2.16516137123108,-15.1547826086957,-12.7497987747192,1.29975032806396
1011,-13.1431379962193,-12.2594690322876,2.22422766685486,-14.4405293005671,-12.7646903991699,1.04855191707611
1012,-19.88,-12.3180599212646,0.786595106124878,-21.7678802992519,-12.813928604126,0.830018639564514
1013,0.92,-12.2063264846802,2.3307511806488,-7.6,-12.7725954055786,0.862219035625458
1014,-7.84689655172414,-12.2041339874268,2.48096179962158,-15.2662068965517,-12.7718324661255,0.971972167491913
1015,-13.5394535519126,-12.2150621414185,2.31615376472473,-9.69071038251366,-12.7643842697144,1.1940815448761
1016,-15.9857142857143,-12.3592338562012,2.23045682907104,-10.2142857142857,-12.796745300293,-0.0789831876754761
1017,-14.7113924050633,-12.3411378860474,1.08928179740906,-17.88,-12.8516788482666,1.41395306587219
1018,-18.0038418079096,-12.3699626922607,1.84489095211029,-16.4671186440678,-12.9523935317993,-1.46784591674805
1019,-9.72,-12.3393392562866,1.76476502418518,-15.8,-12.9113264083862,1.09564113616943
1020,-13.0702008032129,-12.4151954650879,2.225670337677,-3.19775100401606,-12.8383493423462,1.31792771816254
1021,-0.105418719211823,-12.3203840255737,0.753318786621094,-9.67950738916256,-12.8209161758423,0.996540606021881
1022,-3.24,-12.2461309432983,2.17524790763855,-5.44,-12.7382488250732,1.31989741325378
1023,-10.5708176100629,-12.2931365966797,2.25525379180908,-15.84,-12.7662487030029,1.15380477905273
1024,-5.48,-12.2267007827759,2.35137462615967,0.64,-12.6298637390137,1.64185738563538
1025,-9.75125,-12.1741094589233,2.28810977935791,-1.95375,-12.5527257919312,1.87309539318085
1026,-5.8978947368421,-12.1331396102905,2.16213154792786,-20.1889473684211,-12.5953187942505,1.38155102729797
1027,-14.5803351955307,-12.1195182800293,1.49034035205841,-10.2312849162011,-12.6160430908203,1.27137410640717
1028,-7.35747572815534,-12.0496349334717,1.99227356910706,-4.50194174757282,-12.5792961120605,1.95793914794922
1029,-13.76,-12.0781421661377,2.15602731704712,-14.53,-12.5566968917847,1.24632406234741
1030,-5.44,-12.0216007232666,1.88622856140137,-11.64,-12.5488195419312,1.68444728851318
1031,-8.6101775147929,-11.9793729782104,2.32413268089294,-8.5098224852071,-12.5086479187012,1.44960713386536
1032,-8.42367088607595,-12.012864112854,1.90186452865601,-16.6501265822785,-12.5972480773926,1.20378053188324
1033,-14.5480351906158,-12.0591850280762,2.61402058601379,-22.4761290322581,-12.6969566345215,-0.757399022579193
1034,-9.6,-12.0855855941772,2.36362552642822,-3.52,-12.6292219161987,1.76559853553772
1035,-5.52,-12.0263061523438,2.03205943107605,-7.6,-12.554368019104,1.69495260715485
1036,-9.52,-11.9959001541138,2.17997336387634,0.640000000000001,-12.4298524856567,2.12119913101196
1037,-20.8986476868327,-12.0340137481689,2.15387034416199,-10.5064768683274,-12.4254369735718,1.23033428192139
1038,-9.68,-12.0259590148926,2.47511053085327,0.680000000000001,-12.3508214950562,2.06401467323303
1039,-21.96,-12.0827608108521,1.97668564319611,-11.1772870662461,-12.3023500442505,1.35699784755707
1040,-7.6,-12.0966272354126,2.14398765563965,-16.778080495356,-12.349404335022,0.488523602485657
1041,-14.8796812749004,-12.1312923431396,2.12178111076355,-15.84,-12.4038047790527,-0.29094386100769
1042,-7.67057915057915,-12.131495475769,1.99766302108765,-15.1794594594595,-12.4679346084595,0.0929129719734192
1043,-18.832,-12.1990661621094,2.21007943153381,-19.92,-12.5213813781738,0.257664084434509
1044,-11.4610714285714,-12.1681137084961,2.18250560760498,-15.7791666666667,-12.5003423690796,0.52776688337326
1045,-22.4076744186046,-12.2370557785034,0.540150046348572,-10.0211627906977,-12.4207515716553,0.315786302089691
1046,-8.96447204968944,-12.2263202667236,0.948021471500397,-13.9032298136646,-12.4037590026855,0.499923348426819
1047,-11.68,-12.2268533706665,1.1165384054184,-11.64,-12.4730920791626,0.968383848667145
1048,-15.8,-12.2639274597168,2.12945318222046,-11.76,-12.4686365127563,1.04334819316864
1049,-8.47730061349693,-12.2050943374634,2.03418493270874,-15.84,-12.437952041626,1.21591460704803
1050,-17.2651162790698,-12.2357797622681,1.95172548294067,-15.8790697674419,-12.4323110580444,0.85415244102478
1051,-15.8,-12.2562675476074,1.97385597229004,-15.76,-12.4584503173828,0.868366599082947
1052,-3.4,-12.1584177017212,2.09239363670349,-17.88,-12.4572563171387,1.96690452098846
1053,-4.49090909090909,-12.1238241195679,1.12823128700256,-16.1127272727273,-12.5297403335571,1.97815358638763
1054,-16.5368240343348,-12.1975364685059,2.19372582435608,-11.8930472103004,-12.5719614028931,1.02311301231384
1055,-17.0298734177215,-12.1712703704834,2.17900967597961,-13.8581012658228,-12.5043478012085,0.599886536598206
1056,-11.1438683127572,-12.1471366882324,1.95687186717987,-15.600658436214,-12.473762512207,1.1735612154007
1057,-5.6,-12.0893716812134,1.88080132007599,-15.8,-12.5240287780762,1.0248886346817
1058,-17.88,-12.1165714263916,2.01150512695312,-19.1889005235602,-12.58278465271,0.980654358863831
1059,-11.5295302013423,-12.1331787109375,2.11243224143982,-3.89020134228188,-12.5206785202026,0.98504364490509
1060,-13.76,-12.1508207321167,2.14224314689636,-14.750495049505,-12.5358009338379,0.0732033550739288
1061,-8.015,-12.1399869918823,2.21533513069153,-14.1398214285714,-12.5481491088867,0.674830675125122
1062,-17.84,-12.1436815261841,2.21715402603149,-17.0946816479401,-12.598653793335,1.5198940038681
1063,-16.4335714285714,-12.1479053497314,2.10765933990479,-10.1532142857143,-12.6109638214111,0.390596240758896
1064,-7.13473684210526,-12.1229515075684,2.2752001285553,-16.0294736842105,-12.5714263916016,-0.233394831418991
1065,-3.52,-12.0138854980469,2.08792924880981,-9.76,-12.5574836730957,NaN
1066,-10.8414953271028,-11.9669609069824,1.87787699699402,-24,-12.5923318862915,NaN
1067,-13,-11.9724445343018,2.22101235389709,-16.504,-12.5987148284912,NaN
1068,-20.7348148148148,-12.1016092300415,2.17954778671265,-21.5064197530864,-12.7199573516846,NaN
1069,-11.8443010752688,-12.1229286193848,1.87616848945618,-15.9899641577061,-12.7026662826538,NaN
1070,-1.44,-12.0494709014893,2.27061557769775,-17.88,-12.6987390518188,NaN
1071,-5.64,-12.0074138641357,2.40022802352905,-11.76,-12.7079381942749,NaN
1072,-11.8744680851064,-12.028977394104,2.26551604270935,-9.38191489361702,-12.6817255020142,NaN
1073,-3.56,-11.9196434020996,2.45203542709351,-15.84,-12.7435503005981,NaN
1074,-17.88,-11.9898910522461,0.945034265518188,-16.1242506811989,-12.7671937942505,NaN
1075,-14.6672580645161,-12.0372734069824,2.50079560279846,-14.8406451612903,-12.7882652282715,NaN
1076,-9.72,-12.0040054321289,2.47640466690063,-19.92,-12.7980985641479,NaN
1077,-12.1142028985507,-11.9383668899536,2.39141011238098,-14.6440579710145,-12.7885885238647,NaN
1078,-7.64,-11.8930463790894,2.11118221282959,-15.8,-12.8046293258667,NaN
1079,-11.2224066390042,-11.8412961959839,2.29923820495605,-20.5092116182573,-12.8464975357056,NaN
1080,-12.0394252873563,-11.8290176391602,2.52903366088867,-17.7391954022989,-12.8663454055786,NaN
1081,-3.02253164556962,-11.744101524353,2.36631798744202,-20.0043037974684,-12.9190855026245,NaN
1082,-9.98394014962594,-11.6973352432251,2.42674231529236,-17.7402493765586,-12.9235754013062,NaN
1083,-14.498763326226,-11.7070283889771,2.44320607185364,-24,-12.9749736785889,NaN
1084,-15.8,-11.7297105789185,0.830775856971741,-4.18942643391521,-12.9261379241943,NaN
1085,-16.5826470588235,-11.7658252716064,2.33255219459534,-12.7158823529412,-12.9790840148926,NaN
1086,-17.84,-11.8128910064697,2.28425765037537,-15.8,-13.0145120620728,NaN
1087,-12.4732489451477,-11.8073244094849,1.1068502664566,-21.96,-13.0621376037598,NaN
1088,-16.8509302325581,-11.8001775741577,2.29591989517212,-17.88,-13.1293821334839,NaN
1089,-20.3687804878049,-11.8401937484741,1.15576350688934,-14.6673170731707,-13.1321878433228,NaN
1090,-19.92,-11.908727645874,2.17199444770813,-16.0409803921569,-13.1905946731567,NaN
1091,-16.3681063122924,-11.9425601959229,2.12583041191101,-13.4345514950166,-13.1927404403687,NaN
1092,-15.0941645885287,-11.9869575500488,0.688782155513763,-21.96,-13.2621870040894,NaN
1093,-21.96,-12.2232246398926,1.61844396591187,-16.7468599033816,-13.338098526001,NaN
1094,-17.0573913043478,-12.2612056732178,2.1850688457489,-20.5866666666667,-13.4022302627563,NaN
1095,-7.50892561983471,-12.2358531951904,2.46527862548828,-16.6209917355372,-13.4660892486572,NaN
1096,-17.88,-12.3046531677246,2.18788051605225,-21.96,-13.6191558837891,NaN
1097,-13.822015503876,-12.3186674118042,2.27487277984619,-24,-13.7698221206665,NaN
1098,-9.68,-12.3112449645996,2.38346195220947,-21.96,-13.8359050750732,NaN
1099,-3.96881889763779,-12.1974573135376,2.41652703285217,-17.4292913385827,-13.873966217041,NaN
1100,-13.84,-12.1790761947632,2.2651219367981,-19.92,-13.9342794418335,NaN
1101,-16.1022950819672,-12.2067928314209,1.87834548950195,-19.88,-13.9919919967651,NaN
1102,-12.9764841498559,-12.2057590484619,2.05418968200684,-22.8504899135447,-14.0627393722534,NaN
1103,-9.68,-12.2291250228882,2.22089147567749,-20.8238461538462,-14.1190481185913,NaN
1104,-19.92,-12.2273921966553,2.15282678604126,-18.6864516129032,-14.1517581939697,NaN
1105,-16.2452554744526,-12.2231473922729,2.1054527759552,-18.872700729927,-14.1508331298828,NaN
1106,-1.44,-12.1212615966797,2.18069458007812,-11.76,-14.0964336395264,NaN
1107,-10.9799118942731,-12.0803747177124,1.24856162071228,-14.0981497797357,-14.0945863723755,NaN
1108,-14.1266666666667,-12.0386199951172,2.34142708778381,-15.2933333333333,-14.0586023330688,NaN
1109,-13.9805054151625,-12.0458898544312,2.32705974578857,-20.5481588447653,-14.1608009338379,NaN
1110,-21.0771072319202,-12.1313571929932,1.01529955863953,-15.1963092269327,-14.1957483291626,NaN
1111,-6.86456140350877,-12.0845365524292,2.409583568573,-15.2278362573099,-14.1780662536621,NaN
1112,-14.1446153846154,-12.0281772613525,2.26899576187134,-20.2504843304843,-14.2049283981323,NaN
1113,-13.68,-12.0464239120483,2.50859928131104,-17.8495945945946,-14.2151174545288,NaN
1114,-19.96,-12.0712938308716,1.40225124359131,-16.7089655172414,-14.2379083633423,NaN
1115,-17.92,-12.2099609375,1.06195759773254,-18.568813559322,-14.2982358932495,NaN
1116,-10.7623728813559,-12.272910118103,0.885194778442383,-14.0245762711864,-14.2999982833862,NaN
1117,-13.7399369085174,-12.2999753952026,2.54064130783081,-14.6706624605678,-14.3202037811279,NaN
1118,-18.6095652173913,-12.3477869033813,1.66433155536652,-16.4652173913043,-14.2835712432861,NaN
1119,-9.72,-12.3232088088989,2.04175448417664,-19.92,-14.3187208175659,NaN
1120,-15.1070967741936,-12.344087600708,1.72757625579834,-18.9230107526882,-14.34228515625,NaN
1121,-10.8141463414634,-12.3521823883057,2.30040287971497,-18.4619512195122,-14.4416313171387,NaN
1122,-13.6577777777778,-12.3648338317871,2.19262313842773,-19.8177777777778,-14.4956169128418,NaN
1123,-11.72,-12.336612701416,2.21760511398315,-19.92,-14.5467023849487,NaN
1124,-9.96725274725275,-12.3073015213013,2.46542978286743,-12.1793406593407,-14.5466375350952,NaN
1125,-12.5321428571429,-12.3567085266113,1.58290004730225,-18.9871428571429,-14.6123628616333,NaN
1126,-9.64,-12.3289766311646,1.89673745632172,-17.88,-14.651647567749,NaN
1127,-11.034609929078,-12.3298091888428,1.11486721038818,-22.1621276595745,-14.6889743804932,NaN
1128,-8.5,-12.2715978622437,2.36864924430847,-21.02,-14.7496976852417,NaN
1129,-8.15014492753624,-12.3168659210205,2.33104372024536,-19.88,-14.8043632507324,NaN
1130,-13.76,-12.2976894378662,2.38347244262695,-11.4889617486339,-14.7681741714478,NaN
1131,-14.2728143712575,-12.2657384872437,2.46592617034912,-22.0079041916168,-14.8346033096313,NaN
1132,-3.31062761506276,-12.2092733383179,0.995015799999237,-10.4758158995816,-14.7852411270142,NaN
1133,-19.92,-12.2698278427124,2.07176852226257,-18.3733333333333,-14.8141603469849,NaN
1134,-18.3248582995951,-12.3253078460693,2.05340719223022,-18.4468016194332,-14.8642024993896,NaN
1135,2.8,-12.1664047241211,2.35274600982666,-24,-14.913125038147,NaN
1136,-11.6475,-12.1248531341553,3.03832674026489,-11.4383333333333,-14.8563146591187,NaN
1137,-8.42008810572687,-12.1117029190063,2.10945653915405,-16.6200881057269,-14.8476495742798,NaN
1138,-20.9052941176471,-12.2153377532959,1.41591668128967,-11.4781512605042,-14.8457698822021,NaN
1139,-9.72819277108434,-12.1407051086426,2.89921355247498,-18.6591164658635,-14.8967027664185,NaN
1140,-5.81189189189189,-12.093430519104,2.26384377479553,-14.5718918918919,-14.9011964797974,NaN
1141,-7.32,-12.0201501846313,2.18680095672607,-22,-14.9636297225952,NaN
1142,-13.1161661341853,-12.0138635635376,2.38287806510925,-17.3399361022364,-14.988450050354,NaN
1143,-7.56,-11.9728288650513,2.36487102508545,-19.0700826446281,-15.0353193283081,NaN
1144,-1.24,-11.8701677322388,2.35345315933228,-21.96,-15.1020603179932,NaN
1145,-15.8,-11.863621711731,2.45527100563049,-17.84,-15.0969047546387,NaN
1146,-18.8101492537313,-11.8920946121216,2.45786166191101,-20.8453731343284,-15.1432456970215,NaN
1147,-5.99752212389381,-11.8963441848755,0.677596151828766,-22.6148672566372,-15.2454767227173,NaN
1148,-11.16,-11.9616785049438,2.49596214294434,-17.4742857142857,-15.2974395751953,NaN
1149,-11.64,-11.9715557098389,2.33932423591614,-19.92,-15.3058557510376,NaN
1150,-5.36,-11.9699554443359,2.46219062805176,-17.88,-15.429856300354,NaN
1151,-8.61004115226338,-11.9729032516479,2.5548243522644,-17.359670781893,-15.4130535125732,NaN
1152,-9.68,-11.9594202041626,2.58853149414062,-13.8,-15.3965854644775,NaN
1153,-14.0558823529412,-12.0320587158203,2.35199069976807,-19.7417647058823,-15.4500646591187,NaN
1154,-10.9975949367089,-12.0166473388672,2.2461154460907,-19.0382278481013,-15.4662237167358,NaN
1155,-9.91483870967742,-11.967601776123,2.34354853630066,-20.6267448680352,-15.5256023406982,NaN
1156,-19.88,-11.9809350967407,1.97511565685272,-21.96,-15.5630483627319,NaN
1157,-18.7765517241379,-12.0186929702759,1.48715996742249,-17.88,-15.6514682769775,NaN
1158,-12.4406982543641,-12.0096311569214,2.38742327690125,-18.084289276808,-15.707763671875,NaN
1159,-17.84,-12.0354309082031,2.1201446056366,-16.4266666666667,-15.7788105010986,NaN
1160,-2.2222695035461,-11.9506034851074,2.63846778869629,-22.1550354609929,-15.825478553772,NaN
1161,-17.3545762711864,-11.9786796569824,0.796828508377075,-17.6772881355932,-15.8470573425293,NaN
1162,-7.09846153846154,-11.8934698104858,1.12041580677032,-22.16,-15.8496713638306,NaN
1163,-14.1576923076923,-11.9939880371094,2.10801458358765,-20.5353846153846,-15.9359083175659,NaN
1164,-10.6763099630996,-12.0128498077393,2.61002993583679,-12.5539483394834,-15.9178256988525,NaN
1165,-18.4474380165289,-12.0455694198608,0.993072271347046,-21.6142148760331,-15.9973163604736,NaN
1166,-7.43344129554656,-11.9885549545288,2.57713317871094,-21.3653441295547,-16.0716571807861,NaN
1167,-11.76,-11.9688787460327,2.12478542327881,-14.6726637554585,-16.0502758026123,NaN
1168,-13.8,-11.9408531188965,2.16803455352783,-11.6,-16.0178279876709,NaN
1169,-8.1740350877193,-11.9305467605591,2.6115574836731,-21.96,-16.0588932037354,NaN
1170,-2.08328358208955,-11.8573017120361,2.4842381477356,-19.88,-16.1701068878174,NaN
1171,-6.985,-11.9031658172607,1.39756369590759,-20.125,-16.2397441864014,NaN
1172,-14.2964341085271,-11.9768753051758,0.0468680262565613,-19.96,-16.3365440368652,NaN
1173,-10.5969230769231,-11.9770488739014,2.56978583335876,-18.5184615384615,-16.3544006347656,NaN
1174,-10.998829787234,-12.013840675354,2.25620746612549,-24,-16.518669128418,NaN
1175,-5.4,-11.9848327636719,2.23112440109253,-19.92,-16.6384449005127,NaN
1176,-19.92,-12.0783128738403,1.31365978717804,-8.45123339658444,-16.5601921081543,NaN
1177,-12.4469491525424,-12.0640907287598,0.612105846405029,-11.3203389830508,-16.5674514770508,NaN
1178,-15.72,-12.1198406219482,2.23829627037048,-17.88,-16.6566390991211,NaN
