EpisodeIndex,DQNEpisodeReward,DQNAverageReward,DQNEpisodeQ0,DDQNEpisodeReward,DDQNAverageReward,DDQNEpisodeQ0
1,-18.6409465020576,-18.6409473419189,0.0116534698754549,-18.0267489711934,-18.0267486572266,0.0261233560740948
2,-18.422480620155,-18.5317153930664,0.0306618828326464,-15.0348837209302,-16.5308151245117,0.0987126231193542
3,-17.1136363636364,-18.0590229034424,0.0371035560965538,-21.5,-18.1872100830078,0.0110694207251072
4,-18.5816326530612,-18.1896743774414,0.00711682299152017,-22.75,-19.3279075622559,0.00532119115814567
5,-21.5,-18.8517398834229,0.00463957618921995,-20.25,-19.5123252868652,-0.0127127896994352
6,-22.75,-19.5014495849609,0.0313908122479916,-19,-19.4269390106201,-0.129522517323494
7,-20.75,-19.6798133850098,-0.0155438892543316,-15.09,-18.8073749542236,-0.035796444863081
8,-19.6622807017544,-19.6776218414307,-0.0322405286133289,-21.3991228070175,-19.1313438415527,-0.0265014544129372
9,-20.9127906976744,-19.8148612976074,-0.0773021429777145,-22.75,-19.5334167480469,-0.257878452539444
10,-20.25,-19.8583755493164,-0.00916612707078457,-17.754329004329,-19.3555088043213,-0.0308317467570305
11,-19.6244239631336,-19.8371067047119,-0.0187481660395861,-20.25,-19.4368267059326,-0.0331615097820759
12,-20.4262589928058,-19.8862018585205,-0.0109200747683644,-14.6924460431655,-19.0414600372314,-0.0224767085164785
13,-14.8537604456825,-19.4990921020508,0.00669998489320278,-13.3781337047354,-18.6058197021484,-0.000457231537438929
14,-19.6643835616438,-19.5108985900879,1.27839326858521,-19.6643835616438,-18.6814308166504,0.735623776912689
15,-15.75,-19.2601718902588,-0.0112108401954174,-19.8563829787234,-18.7597618103027,-0.0700822472572327
16,-20.25,-19.3220367431641,0.0145255587995052,-21.5,-18.9310264587402,-0.104509726166725
17,-16.9203296703297,-19.1807594299316,1.00446581840515,-14.9203296703297,-18.695104598999,0.0861375406384468
18,-12.4010067114094,-18.8041076660156,0.0364405997097492,-14.506711409396,-18.4624156951904,-0.0174149349331856
19,-16.5352941176471,-18.6846961975098,0.0371031053364277,-19.1941176470588,-18.5009250640869,0.0250613112002611
20,-21.5,-18.82546043396,0.0679414570331573,-17.75,-18.46337890625,0.0175253674387932
21,-15.9803921568627,-18.6899814605713,0.106463298201561,-17.0735294117647,-18.39719581604,0.0415445230901241
22,-19,-18.7040729522705,0.0811269953846931,-21.5,-18.5382328033447,0.0994696766138077
23,-17.6561433447099,-18.6585102081299,0.482177406549454,-16.1331058020478,-18.4336624145508,-0.268282800912857
24,-11.5321637426901,-18.3615798950195,0.0754050612449646,-21.5,-18.5614261627197,0.139318272471428
25,-20.1370967741935,-18.4326019287109,0.179101049900055,-22.75,-18.7289695739746,-0.549624443054199
26,-12.8780487804878,-18.2189655303955,0.144699349999428,-13.6182926829268,-18.5324058532715,0.116550669074059
27,-14.3815789473684,-18.0768394470215,0.157926887273788,-18.1184210526316,-18.5170726776123,0.100738450884819
28,-19.5072815533981,-18.1279258728027,0.153435423970222,-15.7087378640777,-18.4167747497559,0.119517430663109
29,-19.1467391304348,-18.1630573272705,0.113013833761215,-17.695652173913,-18.3919086456299,0.154109835624695
30,-17.037037037037,-18.1255226135254,0.103581137955189,-19.4722222222222,-18.4279174804688,0.182769045233727
31,-17.3413242009132,-18.100227355957,0.0845082700252533,-16.5,-18.3657264709473,0.190628409385681
32,-19.5,-18.143970489502,0.0954361781477928,-15.375,-18.2722663879395,0.125632360577583
33,-9.36219512195122,-17.8778553009033,0.0557462573051453,-15.6951219512195,-18.1941719055176,0.0969116538763046
34,-16.2420634920635,-17.8297443389893,0.0879085138440132,-20.3253968253968,-18.2568550109863,0.0756788477301598
35,-15.25,-17.7560367584229,0.26205387711525,-15.25,-18.1709461212158,0.0959383547306061
36,-17.2385057471264,-17.7416610717773,0.281515419483185,-16.2787356321839,-18.1183853149414,0.158557072281837
37,-11.5243902439024,-17.5736274719238,0.300473809242249,-10.2378048780488,-17.9053955078125,0.270750731229782
38,-18.0953757225434,-17.5873565673828,0.260132133960724,-18.3829479768786,-17.9179630279541,0.226743996143341
39,-21.5,-17.6876811981201,0.176494523882866,-13.9859307359307,-17.8171405792236,0.176408275961876
40,-17,-17.6704902648926,0.0631387904286385,-14.34375,-17.7303047180176,0.0444259904325008
41,-15.9212598425197,-17.6278247833252,0.0924039408564568,-19.1712598425197,-17.7654514312744,0.0595640726387501
42,-21.5,-17.7200202941895,0.589736044406891,-15.9050632911392,-17.7211570739746,-0.662601590156555
43,-15.75,-17.6742057800293,0.125914394855499,-15.1352941176471,-17.6610202789307,-0.0321043282747269
44,-18.8590909090909,-17.7011337280273,0.181372240185738,-17.3818181818182,-17.6546764373779,0.142346188426018
45,-18.6758064516129,-17.7227935791016,-0.0850354358553886,-19,-17.6845722198486,-0.134193375706673
46,-10.6396103896104,-17.568811416626,0.18028561770916,-19.0487012987013,-17.7142276763916,0.187721237540245
47,-19.6557971014493,-17.6132144927979,0.0675765722990036,-16.4601449275362,-17.6875438690186,-0.0365397371351719
48,-16.5,-17.5900230407715,0.0595096051692963,-20.0692307692308,-17.7371616363525,-0.0355384573340416
49,-10.25,-17.4402275085449,0.219223707914352,-15.25,-17.6864032745361,0.109898336231709
50,-20.0760869565217,-17.4929447174072,0.273135215044022,-16.5,-17.6626758575439,0.190187811851501
51,-14.42,-17.432689666748,0.233278453350067,-12.2266666666667,-17.5560855865479,0.0861168801784515
52,-15.5,-17.3955230712891,0.209804564714432,-19.8074792243767,-17.5993824005127,0.0449828542768955
53,-17.1938202247191,-17.3917179107666,0.0625073313713074,-18.9691011235955,-17.6252269744873,-0.63332462310791
54,-19.8136942675159,-17.4365692138672,0.196831196546555,-17.421974522293,-17.6214637756348,0.03775879368186
55,-16.5,-17.4195404052734,0.179285019636154,-15.25,-17.5783462524414,-0.10883355140686
56,-18.1560773480663,-17.4326934814453,0.165766373276711,-22.5497237569061,-17.6671199798584,0.103060856461525
57,-15.7766272189349,-17.4036388397217,0.177832692861557,-17.9082840236686,-17.6713523864746,0.0721742361783981
58,-18.8248898678414,-17.4281444549561,0.206893265247345,-17.1618942731278,-17.6625690460205,0.00756704201921821
59,-12.0748663101604,-17.3374099731445,0.18790003657341,-13.2767379679144,-17.5882320404053,0.183704346418381
60,-19.9074074074074,-17.3802433013916,0.161250993609428,-15.5138888888889,-17.5536575317383,0.12308132648468
61,-16.5,-17.3658123016357,0.140240803360939,-14,-17.4954013824463,-0.0402297824621201
62,-20.1349206349206,-17.4104747772217,0.0955004915595055,-15.6349206349206,-17.4653949737549,-0.215773269534111
63,-15.5700483091787,-17.3812618255615,0.187274530529976,-13.2330917874396,-17.39821434021,0.181169092655182
64,-10.1981566820276,-17.2690277099609,0.0697806999087334,-8.75,-17.2630863189697,0.0184314623475075
65,-12.434554973822,-17.1946506500244,0.75046044588089,-17,-17.2590389251709,-0.565991520881653
66,-18.3095238095238,-17.2115421295166,0.0992322340607643,-19.5,-17.2929935455322,-0.230936840176582
67,-14.5698324022346,-17.1721134185791,0.162537336349487,-17.4581005586592,-17.2954578399658,0.142966821789742
68,-14.754347826087,-17.1365566253662,0.137748837471008,-22.7086956521739,-17.3750629425049,0.0866554453969002
69,-13.8289473684211,-17.0886211395264,0.172882214188576,-16.0131578947368,-17.3553256988525,0.102503769099712
70,-18.4825436408978,-17.1085338592529,0.194975897669792,-13.3746882793017,-17.2984600067139,0.0765435919165611
71,-13.241134751773,-17.0540657043457,0.160129174590111,-15.5425531914894,-17.2737274169922,-0.073234349489212
72,-15.8181818181818,-17.0368995666504,-0.0655419826507568,-12.4772727272727,-17.2071113586426,-0.575339198112488
73,-17.7878048780488,-17.0471858978271,0.17289736866951,-16.3,-17.1946849822998,0.0615281574428082
74,-17.55,-17.0539817810059,0.161296874284744,-14.8666666666667,-17.1632270812988,0.0193461831659079
75,-18.5990099009901,-17.0745792388916,0.142042994499207,-17.6930693069307,-17.1702899932861,-0.0733106806874275
76,-19.3846153846154,-17.1049747467041,0.0958228781819344,-17,-17.1680488586426,-0.188124239444733
77,-16.5,-17.0971183776855,0.0355794727802277,-13.95,-17.1262550354004,-0.224199011921883
78,-18.3237704918033,-17.1128463745117,0.115457788109779,-16.1024590163934,-17.113130569458,-0.223900601267815
79,-16.2835365853659,-17.1023483276367,0.103609576821327,-18.0731707317073,-17.1252841949463,-0.112207032740116
80,-15.25,-17.079195022583,0.108025155961514,-12.75,-17.070592880249,-0.0888909325003624
81,-16.9988372093023,-17.0782012939453,0.0869836509227753,-9.28255813953488,-16.9744434356689,0.00862274784594774
82,-13.2432432432432,-17.0314350128174,0.115168951451778,-13.2432432432432,-16.9289417266846,-0.0298433490097523
83,-14.5983146067416,-17.0021190643311,0.0755540058016777,-12.685393258427,-16.877815246582,-0.0765918865799904
84,-16.6473799126638,-16.997896194458,0.0633200034499168,-18.2467248908297,-16.8941116333008,-0.0862548276782036
85,-14,-16.96262550354,0.143738374114037,-12.75,-16.8453578948975,-0.0565402694046497
86,-14.4008438818565,-16.9328384399414,0.429014593362808,-12.5717299578059,-16.7956619262695,-1.33648180961609
87,-18.8285714285714,-16.9546298980713,0.173729673027992,-18.1793650793651,-16.8115673065186,-0.121826283633709
88,-15.8121761658031,-16.9416465759277,0.196098819375038,-13.6373056994819,-16.7754955291748,0.0503984913229942
89,-17.75,-16.9507293701172,0.234458714723587,-14,-16.7443103790283,0.0106322355568409
90,-13.2647058823529,-16.9097728729248,0.214525729417801,-9.09117647058824,-16.6592769622803,0.122974835336208
91,-13.75,-16.8750495910645,0.191008046269417,-17.4747191011236,-16.6682376861572,0.0798120498657227
92,-18.5592105263158,-16.8933563232422,0.128046184778214,-10.7368421052632,-16.6037654876709,0.0118271168321371
93,-13.75,-16.8595561981201,0.150532424449921,-8.52597402597403,-16.5169067382812,0.0455916449427605
94,-12.5967741935484,-16.8142070770264,0.135536104440689,-16.1532258064516,-16.5130386352539,0.0784410238265991
95,-15.4693308550186,-16.8000507354736,0.0808325335383415,-17.2388475836431,-16.520679473877,0.0142462244257331
96,-8.81656804733728,-16.716890335083,-0.114066436886787,-11.2766272189349,-16.4660549163818,-0.550253391265869
97,-17.3151558073654,-16.7230587005615,0.154662579298019,-17.3626062322946,-16.4752960205078,0.026958029717207
98,-12.75,-16.6825180053711,0.181796178221703,-11.5,-16.4245281219482,-0.00971093960106373
99,-15.25,-16.6680469512939,0.104223489761353,-15.25,-16.4126644134521,-0.173633247613907
100,-14.875,-16.6501178741455,0.273513674736023,-13.0714285714286,-16.3792533874512,0.267890632152557
101,-15.1363636363636,-16.6351280212402,0.266749143600464,-15.8920454545455,-16.3744297027588,0.265875607728958
102,-11.8728070175439,-16.5884380340576,0.250325560569763,-19,-16.4001712799072,0.233988866209984
103,-17.160237388724,-16.5939922332764,0.213360995054245,-16.6528189910979,-16.402624130249,0.186808526515961
104,-10.5940594059406,-16.5362987518311,0.000885356217622757,-12.8440594059406,-16.3684062957764,-0.0340822860598564
105,-12.75,-16.5002403259277,0.0326164290308952,-10.25,-16.3101348876953,-0.0609284676611423
106,-12.75,-16.4648590087891,0.220969572663307,-17.75,-16.3237190246582,0.195748642086983
107,-12.4954545454545,-16.4277610778809,-0.0443615354597569,-13.2590909090909,-16.2950763702393,-0.509267508983612
108,-20.25,-16.4631519317627,0.021618478000164,-21.5071428571429,-16.3433380126953,-0.163381889462471
109,-24,-16.532299041748,0.30375149846077,-14.570652173913,-16.3270740509033,0.254698246717453
110,-12.5414364640884,-16.4960174560547,0.238137260079384,-17,-16.3331928253174,0.259120970964432
111,-19.5,-16.5230808258057,0.163486123085022,-14.0765550239234,-16.3128623962402,-0.0741397514939308
112,-15.7358490566038,-16.5160503387451,0.263383060693741,-14.5,-16.2966747283936,0.223983973264694
113,-19,-16.5380325317383,0.23972724378109,-11.6149425287356,-16.2552452087402,0.246304556727409
114,-14.6,-16.5210342407227,0.19151297211647,-15.425,-16.2479610443115,0.211612895131111
115,-9.66489361702128,-16.4614143371582,0.181470140814781,-11.6382978723404,-16.207878112793,0.254069268703461
116,-11.9772727272727,-16.422758102417,-0.00104373751673847,-17.0681818181818,-16.2152938842773,0.114443734288216
117,-3.49367088607595,-16.3122539520264,0.168817982077599,-12.7943037974684,-16.1860542297363,0.122257709503174
118,-17.7894736842105,-16.3247718811035,0.215608403086662,-11.2953216374269,-16.1446075439453,0.0571280606091022
119,-13.4205607476636,-16.3003673553467,0.227956846356392,-11.8714953271028,-16.108699798584,0.0665155723690987
120,-15.8130841121495,-16.2963047027588,0.212152376770973,-13.9065420560748,-16.0903491973877,0.0706291794776917
121,-12.75,-16.266996383667,0.130183070898056,-16.5,-16.0937347412109,-0.13812144100666
122,-10.25,-16.2176780700684,0.278028130531311,-11.5,-16.056079864502,0.168329179286957
123,-7.40361445783133,-16.1460189819336,0.302844822406769,-14.0421686746988,-16.0397071838379,0.260050982236862
124,-12.6775362318841,-16.1180477142334,-0.181604295969009,-6.71739130434783,-15.964527130127,-0.472119450569153
125,-7.00314465408805,-16.045129776001,0.283061265945435,-18.25,-15.9828109741211,-0.0217544697225094
126,-11.960843373494,-16.0127143859863,0.328036993741989,-13.8915662650602,-15.9662113189697,0.115932650864124
127,-17,-16.020486831665,0.333066344261169,-10.5,-15.923171043396,0.0720944181084633
128,-11.2690476190476,-15.9833669662476,0.135238543152809,-19.0309523809524,-15.9474506378174,-0.41278812289238
129,-11.5,-15.9486131668091,0.253352969884872,-17.75,-15.9614238739014,-0.00447466224431992
130,-19.5,-15.9759311676025,0.2984399497509,-13.3074534161491,-15.9410085678101,0.149515762925148
131,-14.5490797546012,-15.9650373458862,0.362964540719986,-13.25,-15.9204664230347,0.185771897435188
132,-11.5,-15.9312114715576,0.337642461061478,-10.25,-15.8775081634521,0.123609073460102
133,-11.5014792899408,-15.8979053497314,0.924976527690887,-12.0887573964497,-15.8490219116211,-0.810480892658234
134,-7.32142857142857,-15.8339023590088,0.292938619852066,-20.8214285714286,-15.8861284255981,0.170507118105888
135,-10.25,-15.7925405502319,0.305357128381729,-11.5,-15.8536386489868,0.112172245979309
136,-12.2934131736527,-15.7668113708496,0.619037210941315,-15.3473053892216,-15.8499164581299,-1.04299283027649
137,-10.25,-15.7265424728394,0.359823882579803,-11.5,-15.8181648254395,0.21959862112999
138,-13.1674757281553,-15.7079992294312,0.29543724656105,-10.7233009708738,-15.7812461853027,0.263033390045166
139,-14.8289473684211,-15.7016744613647,0.48541995882988,-18.8157894736842,-15.8030767440796,-1.63251483440399
140,-12.9791666666667,-15.6822280883789,0.300702124834061,-13.375,-15.7857332229614,0.206016942858696
141,-14,-15.6702976226807,0.324643105268478,-15.25,-15.7819337844849,-0.0372489430010319
142,-16.5,-15.6761407852173,0.377481371164322,-11.5,-15.7517795562744,0.23064823448658
143,-11.6183431952663,-15.6477651596069,0.370792657136917,-9.47781065088757,-15.7079057693481,0.264367282390594
144,-18.4137931034483,-15.6669721603394,0.1607666015625,-14.2327586206897,-15.6976623535156,-0.641291737556458
145,-12.9812030075188,-15.6484508514404,0.319632530212402,-12.4116541353383,-15.6750001907349,0.149275690317154
146,-10.787558685446,-15.6151561737061,0.245370760560036,-9.90492957746479,-15.6354780197144,0.0910138636827469
147,-11.879746835443,-15.5897445678711,0.249178633093834,-12.5949367088608,-15.6147947311401,-0.00288711511529982
148,-15.4978540772532,-15.5891246795654,0.260414600372314,-17.75,-15.6292209625244,-0.120193727314472
149,-11.9143192488263,-15.5644617080688,0.215038418769836,-17.8427230046948,-15.6440773010254,-0.0581558309495449
150,-14,-15.5540313720703,0.293597728013992,-10.25,-15.6081171035767,-0.0596126206219196
151,-9.25232558139535,-15.4914407730103,0.250775188207626,-15.3767441860465,-15.5904493331909,0.0794238150119781
152,-11.5,-15.445291519165,0.306061625480652,-11.5,-15.5668849945068,0.19733938574791
153,-15.6542056074766,-15.4355611801147,0.361146658658981,-15.9836448598131,-15.5301094055176,0.163340583443642
154,-6.88823529411765,-15.3576040267944,0.350311517715454,-7.25,-15.426775932312,0.00850363541394472
155,-14,-15.3076038360596,0.198898747563362,-15.25,-15.3934421539307,-1.06119668483734
156,-12.59375,-15.2398958206177,0.428540050983429,-6.03125,-15.3069839477539,0.242799982428551
157,-11.5,-15.1782293319702,0.344009429216385,-8.87962962962963,-15.2655811309814,0.167816624045372
158,-6.59171597633136,-15.0910940170288,0.127188190817833,-7.71005917159763,-15.1743211746216,-0.585266411304474
159,-16.9812775330396,-15.0648832321167,0.349868506193161,-16.0925110132159,-15.1299381256104,0.0567015260457993
160,-10.8526200873362,-15.002233505249,0.341259062290192,-3.41593886462882,-15.034348487854,0.110065340995789
161,-15,-14.9714050292969,0.307961672544479,-12.75,-14.9843492507935,0.274061292409897
162,-12.7822580645161,-14.9204444885254,0.294429302215576,-4.59216589861751,-14.917013168335,0.183230236172676
163,-9.89497041420118,-14.8873863220215,0.300914317369461,-12.7366863905325,-14.9127378463745,0.177985832095146
164,-15.25,-14.8579568862915,0.272102296352386,-13.5616883116883,-14.872052192688,0.213583081960678
165,-11.9319526627219,-14.8325033187866,0.321723312139511,-13.75,-14.8313426971436,0.199738100171089
166,-13.9138655462185,-14.79026222229,0.253661215305328,-6.47689075630252,-14.7311878204346,0.104536958038807
167,-17.5536912751678,-14.7944841384888,0.310599625110626,-16.1342281879195,-14.7392807006836,0.0535547509789467
168,-14.9820574162679,-14.8116912841797,0.21262688934803,-13.9222488038278,-14.7353839874268,-0.1005524918437
169,-17,-14.8147888183594,0.224707722663879,-10.1675900277008,-14.6752080917358,0.0505338087677956
170,-15.3214285714286,-14.7735986709595,0.251537084579468,-13.125,-14.6443748474121,0.0124605186283588
171,-6.23802395209581,-14.7086486816406,0.728682577610016,-6.2065868263473,-14.5719289779663,-0.995094478130341
172,-11.4777777777778,-14.6585025787354,0.275504589080811,-8.62222222222222,-14.4860773086548,0.159704968333244
173,-14.8684210526316,-14.6399173736572,0.304002285003662,-14.2631578947368,-14.473611831665,0.00677424483001232
174,-10.1582840236686,-14.6307582855225,0.237616926431656,-16.439349112426,-14.4398727416992,0.0719393491744995
175,-19,-14.6231784820557,0.228919804096222,-17.0151933701657,-14.4016408920288,0.0880968570709229
176,-9.09803921568627,-14.5979785919189,0.243211969733238,-13.2401960784314,-14.3991193771362,-0.0548547506332397
177,-10.25,-14.5704345703125,0.288331776857376,-4,-14.3049964904785,0.122676491737366
178,-14.6975308641975,-14.538369178772,0.328000009059906,-10.3713991769547,-14.2694139480591,0.174825996160507
179,-7.7374213836478,-14.462306022644,0.362446457147598,-8.85691823899371,-14.2104902267456,0.162874832749367
180,-14.2236842105263,-14.4435501098633,0.315061658620834,-16.0131578947368,-14.1874303817749,0.183892786502838
181,-11.5,-14.4046077728271,0.320080459117889,-7.75,-14.1290969848633,0.209360867738724
182,-14.4022988505747,-14.370623588562,-0.00717668607831001,-7.17816091954023,-14.0744495391846,-0.383791148662567
183,-10.0014450867052,-14.3748865127563,0.196021735668182,-7.11705202312139,-14.0172643661499,0.0954979956150055
184,-8.73936170212766,-14.3248682022095,0.256868660449982,-8.06382978723404,-13.9355192184448,-0.0467394627630711
185,-12.6304347826087,-14.3074035644531,0.25134414434433,-8.35326086956522,-13.8895406723022,0.0542487911880016
186,-16.4108695652174,-14.3018865585327,0.223211914300919,-14.3891304347826,-13.8769435882568,0.0540759190917015
187,-12.509900990099,-14.3084554672241,0.2555330991745,-13.25,-13.8970251083374,0.127257898449898
188,-6.03548387096774,-14.2280569076538,-0.565389931201935,-15.9370967741935,-13.8807191848755,-0.799974858760834
189,-8.75292397660819,-14.1430759429932,0.265719085931778,-8.2266081871345,-13.842324256897,0.111105546355247
190,-11.2755972696246,-14.1049137115479,0.698162794113159,-11.6356655290102,-13.8242712020874,-1.48887848854065
191,-10.09,-14.0660381317139,0.342496484518051,-10.4566666666667,-13.7661733627319,0.223439946770668
192,-6.28260869565217,-13.9645900726318,0.399893939495087,-15.75,-13.7651395797729,0.219055399298668
193,-10.3032258064516,-13.9282779693604,0.467800110578537,-6.75,-13.7092380523682,-1.30552637577057
194,-13.2073170731707,-13.8905992507935,0.391473174095154,-15.3170731707317,-13.6954717636108,0.227136865258217
195,-8.95454545454545,-13.8257913589478,0.20583838224411,-8.20454545454546,-13.6235036849976,0.0544058121740818
196,-9.37421383647799,-13.8173551559448,0.295155614614487,-10.4795597484277,-13.5663757324219,-0.0133053986355662
197,-4.48550724637681,-13.7162189483643,0.238869860768318,-9.57246376811594,-13.5204582214355,-0.181618988513947
198,-13.1228070175439,-13.6937046051025,0.473107665777206,-9.74561403508772,-13.4516344070435,0.245665445923805
199,-15.906976744186,-13.7314195632935,-0.0626733601093292,-12.2616279069767,-13.4317102432251,-0.759985506534576
200,-10.25,-13.6659116744995,0.418383091688156,-9,-13.3817110061646,0.169809967279434
201,-10.25,-13.6381101608276,0.52393651008606,-7.75,-13.3518667221069,0.325848937034607
202,-12.3650793650794,-13.6172113418579,0.28883758187294,-7.94179894179894,-13.272762298584,-0.168646201491356
203,-9,-13.5625858306885,0.469270765781403,-10.25,-13.2146348953247,0.285482943058014
204,-14,-13.5238275527954,0.56313556432724,-12.75,-13.1834888458252,0.428000628948212
205,-15.75,-13.5188274383545,0.388168692588806,-6.71518987341772,-13.1265897750854,0.356345742940903
206,-10.25,-13.4661207199097,0.406270742416382,-14,-13.0695924758911,0.222905099391937
207,-6.5,-13.4042768478394,0.579567790031433,-10.25,-13.0185356140137,0.406744182109833
208,-9.31904761904762,-13.3409051895142,0.215850085020065,-3.81666666666667,-12.9295682907104,-0.337667226791382
209,-16.1041666666667,-13.3677673339844,0.332551956176758,-15.875,-12.9468908309937,0.28753200173378
210,-10.8703703703704,-13.3075199127197,0.333084255456924,-10.6851851851852,-12.914698600769,0.323897182941437
211,-7.5,-13.247519493103,0.323811411857605,-15.75,-12.926365852356,0.283658981323242
212,-10.6109625668449,-13.1840267181396,0.274993538856506,-12.3181818181818,-12.9042530059814,0.184319630265236
213,-12.2069892473118,-13.1616058349609,0.334394991397858,-15.0725806451613,-12.9165172576904,0.276120632886887
214,-10.2094594594595,-13.1616811752319,0.371360033750534,-9.68918918918919,-12.9227781295776,0.214096710085869
215,-8.38957055214724,-13.1347150802612,0.366263151168823,-14.3819018404908,-12.9053239822388,0.185469940304756
216,-10.9007092198582,-13.0853233337402,0.328142613172531,-7.38297872340426,-12.8245439529419,-0.00112442998215556
217,-6,-13.028190612793,0.430398017168045,-12.2805164319249,-12.7900266647339,0.116855390369892
218,-10.8764367816092,-13.0023384094238,0.413834303617477,-1.83620689655172,-12.6508760452271,0.119430243968964
219,-12.8559479553903,-12.9958515167236,0.277492135763168,-8.35130111524164,-12.5997972488403,0.0597089119255543
220,-5.6516393442623,-12.9103116989136,0.4936603307724,-5.94262295081967,-12.5502500534058,0.160949498414993
221,-14,-12.9153709411621,0.356874346733093,-14.5,-12.5432987213135,0.170861542224884
222,-11.2,-12.8845834732056,0.333725839853287,-10.075,-12.5272846221924,0.25423464179039
223,-9,-12.8259973526001,0.413266628980637,-7.75,-12.4702844619751,0.396818369626999
224,-7.75,-12.7606639862061,0.449337601661682,-11.5,-12.4478397369385,0.460921883583069
225,-11.6460396039604,-12.7143106460571,0.291431605815887,-13.8589108910891,-12.4222793579102,0.247963204979897
226,-7.75,-12.6367464065552,0.586305439472198,-14,-12.4022798538208,0.215018630027771
227,-13.4,-12.6160802841187,0.401971638202667,-16.5,-12.4192800521851,0.263439953327179
228,-10.25,-12.5622549057007,0.593157887458801,-7.75,-12.3635959625244,0.424980252981186
229,-8.7914364640884,-12.5123081207275,0.390883326530457,-8.73480662983425,-12.3013401031494,0.251966714859009
230,-6.5,-12.4539747238159,0.578635990619659,-12.75,-12.3013401031494,0.298356801271439
231,-11.5,-12.4173164367676,0.373319208621979,-6.5,-12.282790184021,0.23893903195858
232,-18.2986284289277,-12.4510173797607,0.530006587505341,-13.8827930174564,-12.2870540618896,0.261776119470596
233,-12.0334645669291,-12.4339179992676,0.482532829046249,-10.744094488189,-12.2741117477417,0.243943616747856
234,-2.57272727272727,-12.340087890625,-0.114685460925102,-12.4136363636364,-12.2352247238159,-0.368998616933823
235,-7.75,-12.2984209060669,0.428125143051147,-9,-12.2102241516113,0.272714793682098
236,-6.5,-12.2457494735718,0.505326867103577,-11.5,-12.2030792236328,0.351520746946335
237,-11.7368421052632,-12.1984720230103,0.720735132694244,-11.8026315789474,-12.1605682373047,-1.02101469039917
238,0.235436893203883,-12.0914878845215,0.361878305673599,-3.82038834951456,-12.0951223373413,0.320421308279037
239,-12.4155844155844,-12.0559244155884,0.425405591726303,-7.05735930735931,-12.0488376617432,0.344130754470825
240,-14,-12.060827255249,-0.0525336004793644,-11.5681818181818,-12.0653514862061,-0.733899235725403
241,-6.31366459627329,-12.0112504959106,0.353529155254364,-15.8695652173913,-12.0546503067017,0.261119335889816
242,-7.75,-11.9391899108887,0.569147765636444,-7.75,-12.0347375869751,0.366135865449905
243,-9.4789156626506,-11.9107151031494,0.435090988874435,-15.9789156626506,-12.0844240188599,0.387054175138474
244,-6.5,-11.8700704574585,0.462849408388138,-12.75,-12.0617361068726,0.139500126242638
245,-9.84649122807017,-11.8325843811035,0.259669423103333,-8.01608187134503,-12.0002508163452,0.216475576162338
246,-9.86363636363636,-11.8395643234253,0.483927339315414,-9.73863636363636,-11.9899969100952,0.40995180606842
247,-5.34090909090909,-11.7597360610962,0.443275541067123,-9.41991341991342,-11.9370460510254,0.328709632158279
248,-8.65822784810127,-11.732458114624,0.0776764303445816,-9.71518987341772,-11.9251461029053,-0.110757201910019
249,-16.1521164021164,-11.7384719848633,0.333335071802139,-15.2592592592593,-11.9252080917358,0.0965223237872124
250,-11.6225212464589,-11.7167882919312,0.354305863380432,-20.4206798866856,-11.9742031097412,0.279078006744385
251,-6.72922848664688,-11.6607418060303,0.367679804563522,-9.66913946587537,-11.9327173233032,0.238659679889679
252,-10.4404761904762,-11.6511926651001,0.192100018262863,-7.65476190476191,-11.8570823669434,-0.0581113286316395
253,-10.8062827225131,-11.608832359314,0.293743371963501,-1.83900523560209,-11.7583236694336,0.0958842039108276
254,-7.81542056074766,-11.5903072357178,0.395949423313141,-7.56308411214953,-11.7231178283691,0.240491345524788
255,-13.7742718446602,-11.5971374511719,0.38961398601532,-7.57038834951456,-11.7052526473999,0.231788441538811
256,-3.51328502415459,-11.5355587005615,0.456385850906372,-5.92995169082126,-11.6264533996582,0.165567964315414
257,-8.54794520547945,-11.509241104126,3.6469886302948,-2.24657534246575,-11.5530366897583,2.40164113044739
258,-3.21818181818182,-11.3956966400146,0.346464991569519,-9.24545454545455,-11.4712915420532,0.265421181917191
259,-9.48726114649682,-11.2989454269409,0.306897670030594,-13.5175159235669,-11.4642705917358,0.130453661084175
260,-6.77631578947368,-11.2605113983154,0.469109266996384,-8.33771929824561,-11.4065227508545,0.281573116779327
261,-11.5,-11.2071781158447,0.485647320747375,-7.75,-11.3643455505371,0.33302915096283
262,-13.7963414634146,-11.1942472457886,0.543190896511078,-15.75,-11.3726787567139,0.331871598958969
263,-12.0603448275862,-11.1479825973511,0.386640578508377,-7.55747126436782,-11.345627784729,0.249807745218277
264,-12.3474025974026,-11.1329650878906,0.384721368551254,-11.3019480519481,-11.3181409835815,0.131614193320274
265,-9.56460674157303,-11.1322975158691,-0.0865196660161018,-9.21910112359551,-11.3020133972168,-0.363214820623398
266,-4.70662100456621,-11.0838260650635,0.324190944433212,-1.83219178082192,-11.2004404067993,0.282226592302322
267,-15.0243902439024,-11.1606969833374,0.256347864866257,-10.0518292682927,-11.1821575164795,0.249843448400497
268,-10.2954545454545,-11.1107368469238,0.176264673471451,-3.5,-11.1301879882812,0.249233335256577
269,-6.68823529411765,-11.0658550262451,0.259666174650192,-7.22352941176471,-11.0992012023926,0.226417541503906
270,-2.75,-10.9787683486938,0.40646156668663,-10.25,-11.0748243331909,0.280264884233475
271,-11.5,-10.9704351425171,0.597984611988068,-6.5,-11.0081577301025,0.505263388156891
272,-6.26382488479263,-10.9438610076904,0.388543665409088,-11.86866359447,-11.0106153488159,0.128208607435226
273,-4.04787234042553,-10.9214897155762,0.494757264852524,-12.8989361702128,-11.0029935836792,0.2687928378582
274,-7.61363636363636,-10.8877296447754,0.434685200452805,-8.13068181818182,-11.0124158859253,0.203837707638741
275,-5.21459227467811,-10.8758058547974,0.381940633058548,-7.72854077253219,-10.9422731399536,0.143130421638489
276,-11.5,-10.8727331161499,0.282955855131149,-9.52072538860104,-10.9131336212158,0.119662575423717
277,-8.17941176470588,-10.813928604126,0.388782173395157,-14.5411764705882,-10.9400749206543,0.13323487341404
278,-6.24812030075188,-10.7804565429688,0.420881509780884,-5.51127819548872,-10.8499441146851,0.104050934314728
279,-5.41480446927374,-10.7398881912231,0.389993101358414,-16.2081005586592,-10.8396644592285,-0.0157289505004883
280,-4.39457831325301,-10.6391859054565,0.269400626420975,-8.74698795180723,-10.8092622756958,-0.0581687353551388
281,-4.66431924882629,-10.5732879638672,0.266213238239288,-4.1150234741784,-10.7483615875244,0.0445707254111767
282,-13.3776371308017,-10.58580493927,0.127620473504066,-15.0137130801688,-10.7801198959351,-0.625502109527588
283,-10.9860724233983,-10.582368850708,0.43487823009491,-9.87604456824512,-10.7653675079346,0.203371554613113
284,-7.85955056179775,-10.5859565734863,0.421195715665817,-8.66292134831461,-10.6843118667603,0.273586839437485
285,-11.1079365079365,-10.5916767120361,0.241747617721558,-8.23095238095238,-10.6625175476074,0.199882060289383
286,-1.24112426035503,-10.5179948806763,0.341446816921234,-11.3062130177515,-10.6355781555176,0.684704661369324
287,-1.00984251968504,-10.4563932418823,0.395960181951523,-10.2913385826772,-10.6275196075439,0.155217513442039
288,-7.57236842105263,-10.4190921783447,0.354352056980133,-10.3355263157895,-10.6249351501465,0.282001078128815
289,1,-10.3135662078857,0.545002162456512,-4,-10.526162147522,0.393709272146225
290,-4.99390243902439,-10.2603302001953,0.459727495908737,-10.2560975609756,-10.5053691864014,0.331750094890594
291,-4,-10.1936635971069,0.670178294181824,-7.75,-10.4553689956665,0.468391865491867
292,-7.69927536231884,-10.1349935531616,0.500221610069275,-11.5615942028986,-10.4557809829712,0.0939170569181442
293,-12.2817073170732,-10.1394157409668,0.465808063745499,-7.29634146341463,-10.441237449646,0.0593381784856319
294,-9.30816326530612,-10.0787105560303,0.412194490432739,-0.975510204081633,-10.352855682373,0.161526218056679
295,-15.7674418604651,-10.0972862243652,0.350395709276199,-12.5697674418605,-10.353910446167,-0.0867170095443726
296,-11.2841726618705,-10.1005964279175,0.317900389432907,-5.47302158273381,-10.3243637084961,0.162400081753731
297,-4.13461538461539,-10.0489625930786,0.106005504727364,-4.33974358974359,-10.2693290710449,-0.0252868719398975
298,-4,-9.97231006622314,0.563036739826202,-2.75,-10.1693296432495,0.4207444190979
299,-10.2385714285714,-9.96113872528076,0.328456550836563,-12.75,-10.1353778839111,0.237723872065544
300,-9.87142857142857,-9.93361473083496,0.370934933423996,-15.6071428571429,-10.1710920333862,0.101595036685467
301,-3.1285046728972,-9.89278984069824,0.462660372257233,-8.03504672897196,-10.1221475601196,0.263891845941544
302,-8.74409448818898,-9.87441730499268,0.469125300645828,-5.86811023622047,-10.0846014022827,0.204936757683754
303,-7.85130111524164,-9.82239818572998,0.340190261602402,-11.0631970260223,-10.0517988204956,0.00992175750434399
304,-10.5555555555556,-9.84684753417969,0.4083611369133,-7.31666666666667,-10.0522432327271,0.235840111970901
305,-6.71764705882353,-9.79829788208008,0.36990150809288,-4.62647058823529,-9.98141956329346,0.134763360023499
306,-7.01608187134503,-9.76111316680908,0.212063014507294,-5.5,-9.97787761688232,0.257049292325974
307,-7.62662337662338,-9.73528957366943,0.418015390634537,-12.038961038961,-9.99893951416016,0.407549262046814
308,-7.98214285714286,-9.7445592880249,0.407842725515366,-4.08928571428571,-9.9748010635376,0.273971408605576
309,-7.75,-9.68301868438721,0.69722318649292,-6.5,-9.91085147857666,0.536306917667389
310,-6.87341772151899,-9.65649032592773,0.463173300027847,-4.87025316455696,-9.92054653167725,0.368024736642838
311,-1.625,-9.56732368469238,0.451866328716278,-8,-9.88887977600098,0.289235025644302
312,-2.75,-9.5004415512085,0.617713391780853,-9,-9.9182653427124,0.425105363130569
313,-5.25,-9.46947383880615,0.717327892780304,-9,-9.89335441589355,0.526634275913239
314,-5.25,-9.40280914306641,-0.00811120681464672,-4.88636363636364,-9.8355188369751,-0.106929339468479
315,-4.03767123287671,-9.35018062591553,3.99073815345764,-5.93835616438356,-9.7834415435791,3.84102535247803
316,-2.75,-9.27575397491455,0.757596731185913,-7.75,-9.7919282913208,0.54963093996048
317,-7.22643979057592,-9.20690631866455,0.776213943958282,-10.6125654450262,-9.75511837005615,0.508630037307739
318,-10.7010869565217,-9.17836570739746,0.5131676197052,-10.3369565217391,-9.73121547698975,0.286813199520111
319,-5.56038647342995,-9.10210227966309,0.480194240808487,-4.67995169082126,-9.6946325302124,0.271742194890976
320,-14.806657223796,-9.09867000579834,0.317455619573593,-14.2917847025496,-9.70241069793701,0.248765751719475
321,-6.27027027027027,-9.09888553619385,0.294935822486877,-1.73198198198198,-9.67257976531982,0.253491640090942
322,-6.03947368421053,-9.06263065338135,0.448882907629013,-6.60526315789474,-9.65913391113281,0.213100507855415
323,-4.94817073170732,-8.99649524688721,0.348463833332062,-3.99085365853658,-9.590651512146,0.29009872674942
324,-4,-8.95543956756592,0.595932841300964,-4,-9.50772285461426,0.611719250679016
325,-11.0618279569892,-8.9025182723999,0.461957097053528,-11.0618279569892,-9.46803379058838,0.422439157962799
326,-1.14304812834225,-8.84948539733887,0.507924318313599,-3.96524064171123,-9.40619945526123,0.325396239757538
327,-12.55,-8.86481857299805,0.150482684373856,-6.59285714285714,-9.42348670959473,-0.252171725034714
328,-10.6966666666667,-8.8381462097168,0.442340195178986,-7.4,-9.40367698669434,0.140905529260635
329,-6.5,-8.82989692687988,0.60788482427597,-5.25,-9.37963008880615,0.504484117031097
330,-5.25,-8.7700719833374,0.65778523683548,-5.25,-9.30787658691406,0.664233088493347
331,-10.8604651162791,-8.76580905914307,0.22393661737442,-10.343023255814,-9.32516288757324,-0.588044464588165
332,-6.5,-8.71312618255615,0.676178753376007,-1.5,-9.28730773925781,0.496589779853821
333,-4,-8.67311668395996,0.76513946056366,-5.25,-9.27486038208008,0.691058099269867
334,0.24112426035503,-8.61324691772461,0.62324720621109,-1.10355029585799,-9.22845840454102,0.550619781017303
335,-5.74512195121951,-8.56734561920166,0.648369073867798,-5.47804878048781,-9.20929145812988,0.380657404661179
336,-7.09354838709677,-8.50522994995117,-0.301491618156433,-4.79677419354839,-9.14534282684326,-0.561159193515778
337,-5.73780487804878,-8.46008205413818,0.410894602537155,-3.75609756097561,-9.08205032348633,0.448833495378494
338,-2.18478260869565,-8.43441104888916,0.355147540569305,-2.67391304347826,-8.99362850189209,0.382892340421677
339,-11.0632653061225,-8.44981288909912,0.287155359983444,-6.17857142857143,-8.97997570037842,0.243510887026787
340,-1.7752808988764,-8.38647747039795,0.189048454165459,-8.80056179775281,-8.96107387542725,0.132983386516571
341,-1.85227272727273,-8.3315601348877,0.257769614458084,-3.39772727272727,-8.9140157699585,0.00146054569631815
342,-8.1612426035503,-8.34408473968506,0.242102146148682,-7.27810650887574,-8.85753536224365,0.0908297076821327
343,-12.1543062200957,-8.35642528533936,0.45058810710907,0.22488038277512,-8.81103706359863,0.128531783819199
344,-0.25,-8.27004241943359,0.546214461326599,-4,-8.73558902740479,0.565445899963379
345,-11.518691588785,-8.28713703155518,0.45552009344101,-2.23598130841122,-8.69579887390137,0.311437547206879
346,-7.56926406926407,-8.27510452270508,0.453978061676025,-6.74675324675325,-8.67091369628906,0.231312677264214
347,-6.33888888888889,-8.28745937347412,0.411812961101532,-0.186507936507937,-8.6083402633667,0.240461945533752
348,-8.18617021276596,-8.25454902648926,0.285154640674591,-6.21808510638298,-8.58482456207275,0.0735529586672783
349,-5.2485549132948,-8.18349266052246,0.162943810224533,-1.59393063583815,-8.51370620727539,0.108950980007648
350,-5.15506329113924,-8.14952659606934,0.334517151117325,-2.73417721518987,-8.47193336486816,0.270760923624039
351,-1.5,-8.09119319915771,0.580075025558472,-7.75,-8.47193336486816,0.64096063375473
352,-5.02298850574713,-8.04224491119385,0.506220638751984,0.364942528735632,-8.41655540466309,0.339629530906677
353,-2.50990099009901,-7.99897766113281,0.148258730769157,-3.01485148514852,-8.36832141876221,0.336899727582932
354,-5.25,-7.94064474105835,0.556963741779327,-6.5,-8.3266544342041,0.657390952110291
355,-5.25,-7.87064456939697,0.755006790161133,-4,-8.30855274200439,0.716254889965057
356,-4.77586206896552,-7.83415031433105,0.476695626974106,-6.01436781609195,-8.25531578063965,0.447214514017105
357,-2.75,-7.80915021896362,0.716337442398071,-9,-8.24698257446289,0.709613561630249
358,-4,-7.77368974685669,0.660179018974304,-5.25,-8.25653839111328,0.639625787734985
359,-13.9395348837209,-7.75925922393799,0.623547971248627,-2.5093023255814,-8.1674337387085,0.415098071098328
360,-8.62444933920705,-7.74428606033325,0.736891210079193,-6.64867841409692,-8.14052295684814,0.316328912973404
361,-9.09259259259259,-7.75490379333496,0.40295884013176,-8.45634920634921,-8.09189891815186,0.0685183852910995
362,-7.13359788359788,-7.7317214012146,0.609559416770935,-7.42195767195767,-8.0592565536499,0.773209095001221
363,-2.58913043478261,-7.66760158538818,0.416626691818237,-3.28478260869565,-7.98067140579224,0.44509169459343
364,-7.81437768240343,-7.65163469314575,0.449640095233917,-5.15021459227468,-7.95041179656982,0.318419873714447
365,-4.17253521126761,-7.62352132797241,0.201818898320198,-0.0223004694835682,-7.85468101501465,0.364650130271912
366,-6.52083333333333,-7.594322681427,0.215961620211601,-8.29166666666667,-7.86073875427246,0.221121981739998
367,-7.06481481481481,-7.60142183303833,0.27673128247261,-4.2962962962963,-7.80751132965088,0.47767385840416
368,-10.2238154613466,-7.59707117080688,0.438635349273682,-13.1240648379052,-7.88276386260986,0.273112386465073
369,-2.26204819277108,-7.52644443511963,0.328584969043732,-1.64156626506024,-7.83803129196167,0.367346346378326
370,-11.8934108527132,-7.56805658340454,0.304162889719009,-13.4127906976744,-7.88783264160156,0.0262638013809919
371,-5.54310344827586,-7.51167726516724,0.306233704090118,-12.4885057471264,-7.87442302703857,0.169300183653831
372,-9.29545454545454,-7.49898052215576,0.417607724666595,-3.07954545454545,-7.82778644561768,0.225385189056396
373,-5,-7.47231340408325,0.145104676485062,-3.79545454545454,-7.80142259597778,0.2142274081707
374,-1.65882352941176,-7.43170595169067,0.446854442358017,-6.65,-7.76909017562866,0.430183738470078
375,-4.00886524822695,-7.38079118728638,0.533255398273468,-3.15070921985816,-7.69770193099976,0.387176036834717
376,-2.44674556213018,-7.34543561935425,0.649041652679443,-15.25,-7.70603513717651,0.366872280836105
377,-6,-7.29610204696655,0.896145820617676,-2.84375,-7.61499357223511,0.865665137767792
378,-0.769736842105263,-7.23290061950684,0.474008113145828,-7.91447368421053,-7.61608982086182,0.474902510643005
379,-1.22330097087379,-7.18244647979736,0.395191758871078,-5.66747572815534,-7.59564113616943,0.292630881071091
380,-5.25,-7.17411279678345,0.692538499832153,-6.5,-7.55397462844849,0.728869795799255
381,-0.25,-7.09911298751831,0.844784438610077,-4,-7.53730773925781,0.731667637825012
382,-14.6274193548387,-7.07463788986206,0.395141512155533,3.00967741935484,-7.42469072341919,0.65509307384491
383,-7.06818181818182,-7.04153633117676,0.498653650283813,-9.90909090909091,-7.41912412643433,0.245157480239868
384,-10.25,-7.09271812438965,0.812375068664551,1,-7.3297004699707,0.769542574882507
385,0.368421052631579,-7.03859519958496,0.612055122852325,-2.94736842105263,-7.28934907913208,0.548824548721313
386,-1.31818181818182,-7.00405025482178,0.890187382698059,-9.56818181818182,-7.27647066116333,0.711892187595367
387,-0.698757763975155,-6.93046283721924,0.475801438093185,-2.25931677018634,-7.21284818649292,0.465593963861465
388,-1.5,-6.94203186035156,0.89277321100235,-5.25,-7.22237968444824,0.833785533905029
389,-10.6428571428571,-6.93021392822266,0.789823114871979,-5.82142857142857,-7.21413993835449,0.576333701610565
390,-1.465,-6.84664726257324,0.598281979560852,-6.805,-7.18238544464111,0.372955620288849
391,-4.38636363636364,-6.83379888534546,0.373367488384247,-2.73636363636364,-7.09483051300049,0.366108238697052
392,-7.41304347826087,-6.83155250549316,0.217544198036194,-4.5054347826087,-7.07319974899292,0.41285166144371
393,-5.05399061032864,-6.80205345153809,0.400623232126236,-6.23591549295775,-7.00824689865112,0.360398232936859
394,-4.06521739130435,-6.78582096099854,0.484229803085327,-5.97826086956522,-6.96310234069824,0.137497425079346
395,-5.09939759036145,-6.75417375564575,0.24704597890377,-7.34939759036145,-6.95865726470947,0.491828709840775
396,-5.17944785276074,-6.72294616699219,0.493074834346771,-9.67944785276074,-6.95826244354248,0.347736001014709
397,-6.5,-6.73067283630371,0.592696487903595,-2.75,-6.91379642486572,0.516763925552368
398,-1.5,-6.6829514503479,0.988931715488434,-5.25,-6.88402843475342,0.800169706344604
399,-7.05414012738853,-6.62229824066162,0.188520401716232,-6.25955414012739,-6.82402992248535,0.184905290603638
400,-2.84836065573771,-6.56380367279053,0.979291200637817,-2.47540983606557,-6.70439434051514,0.802975594997406
401,-5.7248427672956,-6.55710792541504,0.456726551055908,-4.47641509433962,-6.66977691650391,0.174451932311058
402,-4.83771929824561,-6.51975584030151,0.298727601766586,-3.33771929824561,-6.64099597930908,0.465738415718079
403,-4.24025974025974,-6.47598266601562,0.466346919536591,-7.56818181818182,-6.67919111251831,0.450422555208206
404,-0.905844155844156,-6.42991924285889,0.311692476272583,-6.93722943722944,-6.67501878738403,0.31034380197525
405,-5.27631578947368,-6.37326622009277,0.620758175849915,-3.5,-6.64788246154785,0.208455488085747
406,0.728417266187051,-6.34498834609985,0.353560715913773,-6.5341726618705,-6.65191078186035,0.301701098680496
407,-8.59718100890208,-6.3453164100647,0.574403047561646,-3.12982195845697,-6.657799243927,0.390817373991013
408,-3.34101382488479,-6.34613513946533,0.12137658894062,-8.15783410138249,-6.65054845809937,0.0157960243523121
409,-5.25,-6.31788635253906,0.798690497875214,-2.75,-6.57876491546631,0.669686377048492
410,-6.39320388349515,-6.31533241271973,0.230122834444046,-2.92718446601942,-6.54269504547119,0.325602293014526
411,-8.36707317073171,-6.29444599151611,0.344711422920227,1.63048780487805,-6.48015832901001,0.225255995988846
412,-7.5252808988764,-6.25263929367065,0.366759538650513,-11.4522471910112,-6.4515061378479,0.616500496864319
413,3.05714285714286,-6.15185594558716,0.264915496110916,0.842857142857143,-6.39550447463989,0.0703727677464485
414,-3.2970297029703,-6.09151983261108,0.177797392010689,-12.5,-6.40349102020264,0.427069634199142
415,-2.47440273037543,-6.04425191879272,1.50806081295013,-13.4965870307167,-6.43200778961182,2.28999137878418
416,-6.27852348993289,-6.0547308921814,0.381268262863159,-3.66946308724832,-6.44425630569458,0.190125852823257
417,-2.05072463768116,-5.96824026107788,0.509847521781921,0.949275362318841,-6.37091541290283,0.416645437479019
418,-8.47853185595568,-5.95612764358521,0.380897223949432,-7.93836565096953,-6.40050458908081,0.252619951963425
419,-4.52320675105485,-5.9416937828064,1.37619256973267,-7.7668776371308,-6.40412712097168,2.69713044166565
420,-6.22144846796657,-5.96483707427979,0.611559152603149,-7.67270194986072,-6.38694524765015,0.706164419651031
421,-3.37307692307692,-5.91065740585327,0.510235011577606,-5.46666666666667,-6.38005638122559,0.295966982841492
422,-15.6339779005525,-5.97312498092651,0.194917440414429,-5.90469613259669,-6.34029674530029,0.330210983753204
423,-4,-5.97280597686768,0.71289998292923,-1.5,-6.26430320739746,0.794164299964905
424,-6.18617021276596,-5.96328926086426,0.430032819509506,-1.14893617021277,-6.21775817871094,0.365784466266632
425,-1,-5.9351921081543,0.930906891822815,-8.06012658227848,-6.21996879577637,0.402617186307907
426,-2.37962962962963,-5.8743896484375,0.562778055667877,-3.35648148148148,-6.17887401580811,0.342966079711914
427,2.39714285714286,-5.80387926101685,0.447578370571136,-1.60285714285714,-6.09261846542358,0.244705617427826
428,-0.842794759825328,-5.76784372329712,0.578756332397461,-2.23799126637555,-6.07079648971558,0.328274697065353
429,-7.75,-5.78341197967529,1.00977575778961,-7.75,-6.01440906524658,0.91602087020874
430,2.37849162011173,-5.73825788497925,0.407465428113937,-0.928770949720671,-5.96228742599487,0.433931559324265
431,-10.0730337078652,-5.77431583404541,0.838578224182129,-6.3876404494382,-5.97743892669678,0.59108829498291
432,-1.95609756097561,-5.69817209243774,0.535958111286163,-3.40121951219512,-5.90002202987671,0.447689056396484
433,-3.04733727810651,-5.64524745941162,2.92916774749756,0.855029585798817,-5.82848167419434,1.71190738677979
434,1,-5.58618402481079,1.03356385231018,-1.5,-5.78072834014893,1.03856086730957
435,-3.86831275720165,-5.53791999816895,0.428039520978928,-2.28909465020576,-5.74111604690552,0.30846294760704
436,-2.42105263157895,-5.54578590393066,0.388514578342438,1.15350877192982,-5.65805149078369,0.320877611637115
437,-1.15354330708661,-5.54674386978149,0.66636335849762,-5.94488188976378,-5.629075050354,0.477256655693054
438,0.300751879699248,-5.49425601959229,0.213840797543526,1.02067669172932,-5.55336713790894,0.33935871720314
439,1.04005524861878,-5.49398946762085,0.496851056814194,-0.459944751381215,-5.52976703643799,0.398624300956726
440,-7.97647058823529,-5.51387310028076,0.340121001005173,1.29705882352941,-5.45274591445923,0.237079605460167
441,-5.75980392156863,-5.52560567855835,1.06034553050995,-8.29411764705882,-5.45637321472168,0.711085915565491
442,6.68956043956044,-5.42967987060547,2.32898378372192,1.28846153846154,-5.37070608139038,1.80460238456726
443,-4.85526315789474,-5.3801703453064,1.69779109954834,-4.65789473684211,-5.35311651229858,1.91264915466309
444,-7.39308176100629,-5.36740303039551,0.707466185092926,-7.92452830188679,-5.39944314956665,0.493110835552216
445,-0.365296803652968,-5.26472187042236,0.468698740005493,1.93721461187215,-5.30273008346558,0.403469830751419
446,-6.98668639053254,-5.23607158660889,0.421857863664627,-0.211538461538461,-5.26765394210815,0.543558537960052
447,-3.13865546218487,-5.22943258285522,0.307571351528168,-5.41386554621849,-5.27481460571289,0.366047024726868
448,-6.6360103626943,-5.24700593948364,0.266470700502396,-1.44948186528497,-5.26614427566528,0.459905445575714
449,5.02245508982036,-5.14526557922363,3.27586841583252,-1.23802395209581,-5.18939781188965,2.12869715690613
450,-2.35483870967742,-5.09515523910522,0.543721318244934,-0.0921658986175113,-5.08596420288086,0.278564244508743
451,-3.91883116883117,-5.10042381286621,0.54252165555954,-3.65909090909091,-5.05679130554199,0.2476786673069
452,-0.0928571428571425,-5.04274892807007,0.223854690790176,3.89795918367347,-4.99168395996094,0.128133818507195
453,-6.56612903225806,-5.03418111801147,0.14814418554306,-5.77741935483871,-4.95644569396973,-0.0389785468578339
454,2.05263157894737,-4.95012617111206,0.452337145805359,-6.03947368421053,-4.94793128967285,0.275493085384369
455,-4.54824561403509,-4.9356632232666,0.194341823458672,-2.44736842105263,-4.93340396881104,0.284461200237274
456,-1.5,-4.89888954162598,0.826283037662506,-4,-4.92340421676636,0.908042252063751
457,-17.5055762081784,-4.96474933624268,0.428322345018387,-7.57434944237918,-4.89364004135132,0.147968992590904
458,-3.4,-4.93420171737671,0.492316633462906,0.0318181818181822,-4.86616563796997,0.426736354827881
459,-2.15783410138249,-4.89692068099976,0.433956116437912,-0.0979262672811063,-4.82348489761353,0.318969041109085
460,-6.0077519379845,-4.89114952087402,0.691896378993988,-11.5116279069767,-4.86776065826416,0.309712409973145
461,-0.289473684210527,-4.88224601745605,0.624100208282471,-0.425438596491228,-4.81726360321045,0.3053959608078
462,-1.5,-4.8739128112793,0.907306551933289,-0.25,-4.75893068313599,0.952850818634033
463,-2.21069868995633,-4.85365056991577,0.692294359207153,-5.34606986899563,-4.73457098007202,0.340343624353409
464,-4,-4.84531736373901,1.15006160736084,2.25,-4.68699550628662,1.20031988620758
465,-5.09782608695652,-4.8523850440979,0.362234622240067,-3.67391304347826,-4.67189884185791,0.321238458156586
466,-4.875,-4.86655187606812,0.613063454627991,-8.63636363636364,-4.67780780792236,0.314461499452591
467,-5.125,-4.85254240036011,0.832543611526489,0.71875,-4.60226583480835,0.818244516849518
468,5.37765957446809,-4.74535083770752,0.434373468160629,-0.861702127659574,-4.53909778594971,0.351644665002823
469,-7.07065217391304,-4.75541925430298,0.416911840438843,1.66847826086956,-4.49677467346191,0.245489537715912
470,0.00456621004566227,-4.65667772293091,0.379284679889679,-3.08675799086758,-4.42207479476929,0.188175931572914
471,-1.64571428571429,-4.62584733963013,0.47776073217392,-1.78285714285714,-4.42241430282593,0.114810958504677
472,-0.4024064171123,-4.58826637268066,0.70657354593277,-1.11229946524064,-4.38579416275024,0.30826410651207
473,-7.14018691588785,-4.60288000106812,0.398997694253922,-4.50233644859813,-4.38920402526855,0.111100010573864
474,-5.54347826086957,-4.61317014694214,1.02184343338013,-9.86231884057971,-4.42828607559204,1.17244613170624
475,2.04133858267717,-4.52581596374512,0.858548760414124,-7.31496062992126,-4.40330743789673,0.372150659561157
476,1.6219512195122,-4.50738286972046,0.489409685134888,2.1280487804878,-4.36268520355225,0.24901781976223
477,-7.91379310344828,-4.47647476196289,0.946977019309998,-7.58045977011494,-4.36926937103271,0.776068389415741
478,1.12154696132597,-4.39768648147583,0.539131045341492,5.62154696132597,-4.28245878219604,0.22407753765583
479,-5.25,-4.38935279846191,0.923369944095612,-4,-4.27412557601929,0.957886338233948
480,-1.55263157894737,-4.36470365524292,0.792825102806091,-4.55263157894737,-4.26947689056396,0.300962716341019
481,-12.1713483146067,-4.37344312667847,0.899069011211395,-4.16292134831461,-4.22827577590942,0.697625041007996
482,3.71005917159763,-4.30537605285645,0.555340170860291,-0.607988165680474,-4.22232913970947,0.486837118864059
483,3.98732718894009,-4.25212717056274,0.540145635604858,-3.93433179723502,-4.21355819702148,0.257911175489426
484,-6.96014492753623,-4.30013608932495,0.695547223091125,-8.41666666666667,-4.26231241226196,0.452370762825012
485,-15.1687898089172,-4.36295986175537,0.295798510313034,-5.99363057324841,-4.26574945449829,0.0979283303022385
486,-6.5,-4.3590030670166,1.31943476200104,-4,-4.26043796539307,1.35839605331421
487,-2.75,-4.33908462524414,1.35916912555695,-1.5,-4.24539709091187,1.2837587594986
488,4.73537604456824,-4.29295015335083,0.937302887439728,-2.8391364902507,-4.24649858474731,0.976625323295593
489,-5.91747572815534,-4.25864505767822,0.213259309530258,-0.893203883495145,-4.21126270294189,0.217665076255798
490,-0.293478260869565,-4.24876642227173,0.665604174137115,0.733091787439613,-4.147705078125,0.207619324326515
491,-7.875,-4.28891754150391,0.332992672920227,-9.775,-4.19022035598755,0.120276041328907
492,-0.675810473815462,-4.23901510238647,0.827881932258606,-5.85099750623441,-4.18070602416992,0.454375803470612
493,2.52312138728324,-4.14116477966309,0.226746261119843,2.82947976878613,-4.16334199905396,0.221131920814514
494,1,-4.13283157348633,1.01359510421753,-1.5,-4.14667510986328,0.873901903629303
495,-1.5,-4.06604051589966,1.28319311141968,-5.25,-4.16676902770996,1.31488418579102
496,1.05609756097561,-4.00853776931763,0.764877259731293,4.78536585365854,-4.08988809585571,0.26701620221138
497,-2.5755033557047,-3.98344898223877,0.445467799901962,-1.01677852348993,-4.09542322158813,0.35140585899353
498,-1.32608695652174,-3.93771481513977,0.376667678356171,0.173913043478261,-4.05281019210815,0.352766364812851
499,-1.91089108910891,-3.91546392440796,0.226459041237831,-1.8019801980198,-4.05419683456421,0.279125601053238
500,1.13333333333333,-3.87354135513306,0.65302574634552,-0.544444444444445,-4.03959894180298,0.388593584299088
501,6.77923976608187,-3.81834626197815,0.592332720756531,-5.01023391812866,-4.02133321762085,0.443535357713699
502,-2.84259259259259,-3.80381059646606,0.766885101795197,1.10648148148148,-4.01638984680176,0.36033234000206
503,-3.52666666666667,-3.8105890750885,0.362726897001266,-0.786666666666667,-4.00153541564941,0.365390956401825
504,-2.80737704918033,-3.79430508613586,1.31418871879578,2.25819672131148,-3.94314742088318,1.23438882827759
505,-5.96153846153846,-3.79904818534851,0.409924000501633,-2.34319526627219,-3.93210196495056,0.379380375146866
506,-1.46428571428571,-3.77697110176086,0.462009608745575,-7.32142857142857,-3.94081592559814,0.116218723356724
507,2.47058823529412,-3.74216723442078,1.19769537448883,-2.53921568627451,-3.89774417877197,1.03609383106232
508,-7.47525597269625,-3.76533579826355,2.97747731208801,1.52730375426621,-3.85256195068359,2.84624910354614
509,1,-3.66573882102966,0.888065993785858,-4,-3.86249995231628,0.952957987785339
510,1.04545454545455,-3.60127282142639,1.46991014480591,4.22727272727273,-3.78999352455139,0.809059619903564
511,2.24,-3.52572226524353,0.704343199729919,-2.615,-3.75105094909668,0.462835997343063
512,0.467105263157895,-3.4750509262085,0.60089898109436,-0.434210526315789,-3.70446610450745,0.436502039432526
513,4.02058823529412,-3.43098592758179,0.563732445240021,-2.05588235294118,-3.69627356529236,0.539731979370117
514,1.22916666666667,-3.37069535255432,0.688721656799316,-4.29166666666667,-3.69055008888245,0.450844585895538
515,2.67283950617284,-3.32505989074707,0.628321588039398,-0.45679012345679,-3.69344687461853,0.401731431484222
516,-0.0833333333333331,-3.28214311599731,0.339827090501785,0.774891774891775,-3.6330029964447,0.394654870033264
517,-3.09210526315789,-3.25565838813782,3.04635810852051,0.815789473684211,-3.59892249107361,1.73322582244873
518,5.04756097560976,-3.15384912490845,0.947383761405945,0.929268292682927,-3.50523352622986,0.498305946588516
519,-2.75,-3.15710186958313,1.07764685153961,-1.5,-3.5042896270752,0.928857028484344
520,5.22692307692308,-3.04296660423279,1.58112597465515,-1.91794871794872,-3.42765736579895,1.21811234951019
521,0.285971223021583,-3.00410580635071,0.584700882434845,0.0143884892086339,-3.34430456161499,0.501731634140015
522,-1.96240601503759,-2.95521903038025,0.394982695579529,-3.44360902255639,-3.34673166275024,0.407329350709915
523,-6.5,-2.96521902084351,1.1595207452774,2.25,-3.30642890930176,1.19433736801147
524,-8.46009389671362,-3.0105607509613,0.580849707126617,-12.787558685446,-3.34734606742859,0.358943194150925
525,-7.44713656387665,-3.03348255157471,0.912288069725037,-3.66519823788546,-3.35077595710754,0.223323494195938
526,4.08659217877095,-2.98992705345154,0.524649679660797,2.83659217877095,-3.23019886016846,0.347341120243073
527,-5.85582010582011,-2.9889657497406,1.95773720741272,0.828042328042328,-3.20572018623352,1.57729029655457
528,0.540780141843971,-2.98022890090942,1.21942162513733,-0.274822695035462,-3.15478897094727,0.9798424243927
529,1,-2.96540713310242,1.31444180011749,1,-3.11033916473389,1.29981756210327
530,-1.86176470588235,-2.94281888008118,1.27739322185516,1.85882352941176,-3.0546133518219,0.841619908809662
531,-4.17934782608696,-2.96901416778564,0.287719517946243,-3.14673913043478,-3.04892539978027,0.288734167814255
532,-6.05314960629921,-2.91185235977173,0.793205738067627,0.539370078740157,-3.06539392471313,0.414471447467804
533,-2.57805907172996,-2.88191843032837,3.60880756378174,0.300632911392405,-2.99732899665833,2.84626245498657
534,-8.49723756906077,-2.87023329734802,0.502176702022552,-14.4074585635359,-3.10004568099976,0.325295060873032
535,-2.73148148148148,-2.89089941978455,0.659863352775574,0.333333333333333,-3.07817435264587,0.573624730110168
536,-0.968934911242604,-2.88857126235962,0.703886985778809,-1.28994082840237,-3.02298593521118,0.224996298551559
537,5.22077922077922,-2.84910750389099,0.459131360054016,0.233766233766234,-3.00636506080627,0.420596092939377
538,-1.61357340720222,-2.84986448287964,0.425091803073883,-7.83864265927978,-3.02362275123596,0.142602473497391
539,-1.63333333333333,-2.78980112075806,0.885053873062134,-4.56984126984127,-3.01527881622314,0.998183727264404
540,-2.19594594594595,-2.79467415809631,0.251682341098785,-7.73648648648649,-3.021488904953,0.0816269814968109
541,-2.68820224719101,-2.78335285186768,0.564417958259583,-3.60112359550562,-3.02725410461426,0.399875104427338
542,-2.18835616438356,-2.74852180480957,7.87578296661377,5.56164383561644,-2.96014022827148,5.93693447113037
543,1.96742209631728,-2.70171213150024,0.753621160984039,-3.85764872521247,-2.94428515434265,0.338870912790298
544,-5.94807121661721,-2.71426463127136,0.7286257147789,-3.12240356083086,-2.92524600028992,0.415320366621017
545,-8.93181818181818,-2.73981428146362,0.0435013510286808,-2.90909090909091,-2.89564394950867,0.260805159807205
546,-6.07758620689655,-2.7458016872406,0.639823734760284,0.89080459770115,-2.82517552375793,0.24690480530262
547,1,-2.69580173492432,1.22816288471222,-1.5,-2.81684231758118,1.28039610385895
548,-1.69318181818182,-2.69708967208862,0.765542447566986,-13.8977272727273,-2.87449383735657,0.360847800970078
549,-1.47906976744186,-2.65992259979248,0.873058617115021,-8.38372093023256,-2.88865494728088,0.282620489597321
550,4.19047619047619,-2.61299705505371,0.568430960178375,1.19480519480519,-2.86418676376343,0.293812602758408
551,3.16504854368932,-2.55373096466064,0.609929203987122,1.12378640776699,-2.82685208320618,0.278968065977097
552,-2.28051643192488,-2.53668284416199,0.484853059053421,0.205399061032864,-2.80323147773743,0.303263038396835
553,4.08878504672897,-2.48115611076355,0.394463032484055,2.74299065420561,-2.73449015617371,0.0988740921020508
554,-6.90909090909091,-2.52117776870728,0.972858488559723,-4.72727272727273,-2.71975708007812,0.469526141881943
555,0.630434782608695,-2.48179936408997,0.972593128681183,-1.65434782608696,-2.70745253562927,0.981935083866119
556,-0.964285714285714,-2.493084192276,1.03987431526184,0.482142857142857,-2.66067719459534,0.505430281162262
557,1,-2.42910289764404,1.16150438785553,1,-2.63314485549927,1.11424016952515
558,-0.25,-2.40849590301514,1.17231452465057,1,-2.57209277153015,1.10983371734619
559,0.522455089820359,-2.37001299858093,3.78272557258606,2.01197604790419,-2.54034638404846,2.60844850540161
560,-0.25,-2.3290581703186,1.08532106876373,-0.25,-2.52249836921692,1.05239117145538
561,1,-2.26661109924316,1.07930421829224,1,-2.52670168876648,1.01493620872498
562,-2.69207317073171,-2.2343897819519,0.524267733097076,-8.71036585365854,-2.50842237472534,0.317259043455124
563,-5.25,-2.28977084159851,1.16195726394653,-1.5,-2.52404165267944,1.06054878234863
564,-2.78571428571429,-2.2863621711731,2.59266066551208,-1.02380952380952,-2.44753360748291,1.86200273036957
565,-1.71276595744681,-2.28128433227539,0.778498947620392,0.553191489361702,-2.35386848449707,0.386335581541061
566,-3.50306748466258,-2.26278114318848,0.906161785125732,3.07361963190184,-2.30891466140747,0.52367627620697
567,3.43956043956044,-2.2261791229248,3.65049171447754,2.8489010989011,-2.29625034332275,2.41351819038391
568,4.15822784810126,-2.14193439483643,3.32487297058105,3.06962025316456,-2.22286367416382,2.31169152259827
569,-0.628238341968912,-2.1159679889679,0.477433413267136,-0.0103626943005184,-2.17115378379822,0.382930099964142
570,5.74545454545455,-2.03618860244751,2.54682183265686,5.27727272727273,-2.08482050895691,2.06926488876343
571,7.03448275862069,-1.9668048620224,0.649868905544281,2.59195402298851,-2.03109645843506,0.458237439393997
572,1.95569620253165,-1.84954023361206,0.838483989238739,4.41455696202532,-1.96230137348175,0.482806265354156
573,-9.26404494382022,-1.88463401794434,1.1909419298172,-2.19662921348315,-1.96694564819336,1.00115513801575
574,-9.6980198019802,-1.90804648399353,0.573963522911072,1.73019801980198,-1.94775152206421,0.421247750520706
575,-1.42436974789916,-1.91087543964386,0.63292670249939,-1.82773109243698,-1.90620219707489,0.402927935123444
576,-1.99705882352941,-1.90832495689392,0.62315046787262,-3.4,-1.90649235248566,0.412178426980972
577,-8.96351931330472,-1.98406267166138,1.11534798145294,-2.79935622317597,-1.91446900367737,0.767848610877991
578,1,-1.97177731990814,1.38527619838715,-2.75,-1.91788232326508,1.59115612506866
579,-3.71084337349398,-1.94484984874725,0.406917870044708,-3.34939759036145,-1.88854467868805,0.345862060785294
580,-2.84171597633136,-1.97965133190155,1.89557492733002,5.75,-1.84401953220367,1.37743842601776
581,-4.33544303797468,-1.9414005279541,1.04685723781586,-1.32911392405063,-1.81029617786407,0.631695330142975
582,2.47486772486772,-1.911860704422,0.893466413021088,-8.12301587301587,-1.84177494049072,0.221955373883247
583,-5.2289156626506,-1.92640459537506,0.551965475082397,0.984939759036144,-1.84090876579285,0.336482644081116
584,1,-1.92640459537506,1.62730348110199,-0.25,-1.8325754404068,1.68891632556915
585,0.228070175438596,-1.89909529685974,0.721319854259491,-1.3859649122807,-1.82655453681946,0.474123746156693
586,-6.18225806451613,-1.92416989803314,2.6208131313324,3.00967741935484,-1.81418013572693,1.35456824302673
587,-1.5,-1.92647969722748,1.58017444610596,1,-1.76788091659546,1.63044595718384
588,-5.97798742138365,-1.96833801269531,1.08805847167969,-1.0188679245283,-1.78147780895233,0.498199790716171
589,-2.63679245283019,-1.9928503036499,1.06737732887268,-2.27987421383648,-1.79361081123352,0.658967971801758
590,-4,-1.9663405418396,1.7844911813736,-4,-1.82892453670502,1.72304093837738
591,2.25,-1.91294169425964,1.61601257324219,1,-1.76696372032166,1.7523341178894
592,-3.61627906976744,-1.98164737224579,0.739200472831726,-10.2267441860465,-1.84373164176941,-0.166436418890953
593,2.40714285714286,-1.93323135375977,1.43809461593628,-2.82380952380952,-1.83150446414948,1.14862263202667
594,-2.75,-1.9022775888443,0.789555847644806,-9.04569892473118,-1.83897888660431,0.534574747085571
595,-4.94371727748691,-1.93280029296875,1.98207819461823,-0.93586387434555,-1.85813295841217,2.11810350418091
596,-3.04425837320574,-1.90651750564575,1.68154299259186,-7.05861244019139,-1.90377986431122,1.63790106773376
597,2.91341463414634,-1.86617028713226,0.878507196903229,-4.04634146341463,-1.89466309547424,0.310378760099411
598,0.229289940828402,-1.82040166854858,4.65576124191284,5.2292899408284,-1.85013794898987,3.120600938797
599,4.75,-1.82221806049347,1.79005324840546,-1.5,-1.85188460350037,1.85876739025116
600,-2.75,-1.82485246658325,1.66945946216583,3.5,-1.8279367685318,1.72295594215393
601,1.7453488372093,-1.78709125518799,1.0383585691452,4.33372093023256,-1.77465128898621,0.488237500190735
602,-7.32558139534884,-1.83530950546265,1.03038501739502,-10.3352713178295,-1.86953961849213,0.368300199508667
603,3.43956043956044,-1.76860475540161,4.18017292022705,0.64010989010989,-1.8267560005188,2.62345433235168
604,-2.8140243902439,-1.80104923248291,0.621309816837311,-5.88414634146341,-1.82572042942047,0.387168824672699
605,5.13864628820961,-1.73646998405457,1.10439050197601,1.50655021834061,-1.79936099052429,0.431839019060135
606,-1.64214463840399,-1.7374175786972,1.07220911979675,-6.0498753117207,-1.81302690505981,0.585446238517761
607,-4.21995708154506,-1.64884686470032,1.0715024471283,-6.74248927038627,-1.80748128890991,0.654232680797577
608,1,-1.61951351165771,1.5459988117218,3.5,-1.7843599319458,1.63524448871613
609,1.84670781893004,-1.59281659126282,0.795556783676147,-1.309670781893,-1.79243838787079,0.437411665916443
610,-3.95440251572327,-1.57912755012512,1.06773281097412,-5.34905660377358,-1.75135433673859,0.317313134670258
611,5.47020725388601,-1.54072976112366,0.586179256439209,-2.48575129533679,-1.76508986949921,0.452933102846146
612,-0.650709219858156,-1.53506779670715,1.29640281200409,1.65780141843972,-1.75237119197845,1.39292621612549
613,-5.57954545454546,-1.55752682685852,0.888951778411865,-1.03409090909091,-1.72362470626831,0.683823764324188
614,-3.34239130434783,-1.553142786026,0.938225388526917,-2.43478260869565,-1.7548565864563,0.392220050096512
615,-0.379268292682927,-1.52168583869934,0.80285108089447,0.758536585365854,-1.72530674934387,0.226137593388557
616,2.21961325966851,-1.47438836097717,0.875923633575439,3.20441988950276,-1.64636814594269,0.537970423698425
617,6.20454545454546,-1.39885807037354,2.52137565612793,-1.34090909090909,-1.66009926795959,1.30923867225647
618,-2.11746987951807,-1.44882547855377,0.249811738729477,-5.5,-1.69102132320404,0.514189183712006
619,1,-1.39502120018005,1.83156800270081,3.5,-1.67881119251251,1.924849152565
620,-1.43390804597701,-1.40461099147797,1.03722274303436,3.05459770114943,-1.63786888122559,0.498960107564926
621,1,-1.38697290420532,1.27146196365356,-4,-1.65264976024628,1.31281328201294
622,-6.82142857142857,-1.4297661781311,1.20566284656525,-1.58928571428571,-1.65582966804504,0.76354193687439
623,2.43518518518519,-1.36593055725098,1.08769166469574,-5.75,-1.66414737701416,0.427572786808014
624,2.25,-1.3139740228653,1.81763696670532,-0.25,-1.60006523132324,1.90903103351593
625,3.39761904761905,-1.30493199825287,1.98721313476562,3.43571428571429,-1.52839410305023,1.45558905601501
626,-0.881578947368421,-1.32162237167358,1.3109290599823,-0.93421052631579,-1.54880905151367,0.627058207988739
627,-3.10380116959064,-1.28955566883087,0.906719863414764,4.3640350877193,-1.46917915344238,0.779909491539001
628,-3.10828877005348,-1.31775462627411,1.13881957530975,-3.61229946524064,-1.53073823451996,0.881417095661163
629,-0.25,-1.28442132472992,1.63028872013092,4.75,-1.47240483760834,1.59492993354797
630,1.18156424581006,-1.26619338989258,0.753655195236206,5.33659217877095,-1.40647661685944,0.385610014200211
631,-8.6968085106383,-1.24302971363068,0.912558317184448,-10.4308510638298,-1.44826281070709,0.0534262619912624
632,0.0227272727272725,-1.26761186122894,1.42442119121552,3.45454545454545,-1.42117917537689,0.394791066646576
633,-3.14912280701754,-1.31518828868866,0.903331398963928,-1.58333333333333,-1.40550601482391,0.435187816619873
634,-1.84259259259259,-1.28107130527496,0.91764509677887,-0.861111111111111,-1.35513544082642,0.665672838687897
635,2.02083333333333,-1.16647374629974,0.965208947658539,4.02083333333333,-1.28837239742279,0.443648546934128
636,3.5,-1.09980702400208,2.00349760055542,-1.5,-1.2717057466507,2.10590934753418
637,0.605882352941177,-1.07743453979492,0.971887290477753,2.37058823529412,-1.24590194225311,0.685458123683929
638,-7.51982378854625,-1.15913581848145,1.37207341194153,-9.77863436123348,-1.29216516017914,0.724603354930878
639,3.0252808988764,-1.09951746463776,1.85953831672668,-4.67696629213483,-1.31739032268524,1.38319087028503
640,1.56692913385827,-1.0871148109436,0.864215433597565,2.07283464566929,-1.30845868587494,0.537843644618988
641,1.72402597402597,-1.02312123775482,1.24256503582001,2.73376623376623,-1.2250669002533,0.586417973041534
642,4.75,-0.986949145793915,1.2995308637619,1,-1.17939352989197,1.23993134498596
643,5.6875,-0.965853273868561,1.54274117946625,3.28125,-1.17638170719147,1.56416976451874
644,-3.00581395348837,-0.992558717727661,1.05027341842651,-3.4593023255814,-1.18944370746613,0.206465423107147
645,-4.13165680473373,-1.01010310649872,2.21824932098389,5.47337278106509,-1.11795461177826,1.75433170795441
646,1,-1.01047706604004,1.98762929439545,1,-1.14319038391113,2.02690958976746
647,-1.08450704225352,-1.00053715705872,0.826448082923889,0.303990610328639,-1.13438522815704,0.4581518471241
648,4.25,-0.963363230228424,5.94928312301636,4.27245508982036,-1.10706162452698,4.3235387802124
649,3.48181818181818,-0.927411913871765,3.68322730064392,0.804545454545454,-1.08968484401703,3.06212067604065
650,-4.20118343195266,-0.962975382804871,4.05040264129639,3.95266272189349,-1.05970406532288,4.01245307922363
651,-3.98780487804878,-1.03475570678711,1.05367457866669,3.22560975609756,-1.00479853153229,0.781311929225922
652,1,-1.00913834571838,1.4341584444046,3.5,-0.988841652870178,1.40655720233917
653,2.25,-0.970627248287201,1.71560120582581,-4,-1.01026391983032,1.7285692691803
654,-1.76111111111111,-0.96365213394165,1.22453391551971,3.09444444444444,-1.0046888589859,0.893112242221832
655,-4.1355421686747,-0.951478898525238,0.826181769371033,-8.24698795180723,-1.04404747486115,0.562245666980743
656,0.655737704918033,-0.937345385551453,1.90547037124634,0.0737704918032787,-0.994746088981628,1.91233968734741
657,-5.07396449704142,-0.987642288208008,1.17194545269012,-3.90828402366864,-1.00387334823608,0.512131810188293
658,0.657407407407407,-0.933424592018127,1.19686996936798,-4.51587301587302,-1.04416120052338,0.311702191829681
659,3.63658536585366,-0.91584724187851,0.935991644859314,1.10243902439024,-1.01014482975006,0.541062235832214
660,-5.92985611510791,-0.962349355220795,0.740199625492096,-0.586330935251799,-1.04223561286926,0.636256515979767
661,-0.564327485380117,-0.981044948101044,0.838329017162323,-0.568713450292397,-1.02859377861023,0.632453203201294
662,-4.0625,-1.01124227046967,1.36159598827362,-6.66477272727273,-1.07013082504272,0.967505276203156
663,1,-1.03137958049774,2.07639241218567,-2.75,-1.07475829124451,2.06331896781921
664,2.69333333333333,-1.02161848545074,0.722552180290222,-2.38,-1.06201386451721,0.428714573383331
665,-3.83495145631068,-1.06500363349915,1.09882652759552,4.2621359223301,-1.03055441379547,0.569680094718933
666,4.75,-1.03278148174286,1.45377314090729,-0.25,-1.03738689422607,1.45778357982635
667,1,-1.00550079345703,1.57219016551971,4.75,-1.01115882396698,1.62263584136963
668,-0.96,-1.04555118083954,1.23111486434937,2.4,-1.00135397911072,0.673001110553741
669,3.74271844660194,-1.00226640701294,0.733311474323273,3.79126213592233,-0.966078877449036,0.465410113334656
670,-9,-1.09711265563965,0.951372742652893,-6.87634408602151,-0.999134957790375,0.599803924560547
671,-1.46428571428571,-1.10878098011017,0.9706911444664,2.35924369747899,-0.983502507209778,0.546554446220398
672,-0.25,-1.09736490249634,1.72812616825104,-0.25,-0.962211787700653,1.75812125205994
673,1,-1.04736495018005,1.35292530059814,3.5,-0.953878462314606,1.29696679115295
674,4.26775147928994,-0.962512493133545,1.08474767208099,5.02810650887574,-0.835107326507568,0.881244540214539
675,-0.873529411764706,-0.918688476085663,1.4762077331543,-0.844117647058823,-0.8163001537323,1.46343111991882
676,-4,-0.97259908914566,1.96555840969086,2.25,-0.820210695266724,2.014328956604
677,2.02649769585253,-0.920050382614136,1.46146678924561,1.19700460829493,-0.817750990390778,1.54343509674072
678,5.23936170212766,-0.888726472854614,1.38316583633423,-3.36170212765957,-0.838330209255219,0.759542465209961
679,0.87719298245614,-0.889545202255249,1.31710600852966,0.175438596491228,-0.843827247619629,0.763599097728729
680,5.56962025316456,-0.840002655982971,4.63219308853149,2.31962025316456,-0.84075528383255,4.45975351333618
681,2.25,-0.79714035987854,1.74638473987579,3.5,-0.796443700790405,1.82674849033356
682,-0.994117647058824,-0.763413429260254,1.03172969818115,-0.714705882352941,-0.80480420589447,0.886374950408936
683,1.06578947368421,-0.739121079444885,1.21723639965057,1.07894736842105,-0.799615502357483,0.993463456630707
684,6.30882352941176,-0.640413999557495,2.27604246139526,-5.93627450980392,-0.743140935897827,1.94331991672516
685,2.52705627705628,-0.60535717010498,1.0423846244812,-3.98268398268398,-0.771914303302765,0.774066746234894
686,0.868421052631578,-0.593108117580414,3.86329627037048,4.94736842105263,-0.73033219575882,2.43889594078064
687,3.70238095238095,-0.603230774402618,2.44223070144653,1.86640211640212,-0.71944797039032,2.31561946868896
688,-0.0451612903225804,-0.59277468919754,3.54344582557678,3.50967741935484,-0.643792510032654,2.79186940193176
689,2.43316831683168,-0.565664708614349,0.971519827842712,2.34405940594059,-0.597699880599976,0.719608068466187
690,4.75,-0.519358396530151,1.47304463386536,-0.25,-0.547789990901947,1.36585021018982
691,1.91089108910891,-0.48869776725769,1.34695947170258,4.8490099009901,-0.491455793380737,0.853098452091217
692,-2.75,-0.492442071437836,2.05948090553284,2.25,-0.513533413410187,2.2515082359314
693,8.06159420289855,-0.451814264059067,2.35980772972107,4.48188405797101,-0.457936495542526,2.40158534049988
694,6.60024154589372,-0.36815881729126,1.72637152671814,1.86352657004831,-0.424696981906891,0.859345018863678
695,-3.88793103448276,-0.334532886743546,0.757214486598969,-1.35057471264368,-0.414306879043579,0.596205234527588
696,-9.91956521739131,-0.360146075487137,1.46548998355865,-3.7804347826087,-0.445448458194733,0.950943350791931
697,-4.37359550561798,-0.395970046520233,1.72897803783417,-2.28651685393258,-0.450691938400269,1.48855865001678
698,3.61335403726708,-0.360593169927597,1.00670385360718,0.673913043478261,-0.353547662496567,0.621874332427979
699,5.05511811023622,-0.317031919956207,1.60468709468842,0.0413385826771655,-0.297380566596985,1.17020153999329
700,2.68721461187215,-0.327053636312485,1.3259174823761,3.57191780821918,-0.281533151865005,0.918618083000183
701,1.75,-0.336487293243408,0.646896362304688,0.545454545454545,-0.285388678312302,0.72220778465271
702,-3.45689655172414,-0.344329804182053,1.91380739212036,-2.79022988505747,-0.305359542369843,2.05365562438965
703,-0.0890410958904111,-0.372181981801987,6.77151536941528,-0.188356164383562,-0.324901878833771,6.0520486831665
704,-3.35869565217391,-0.348512709140778,1.7857027053833,1.27898550724638,-0.284860163927078,1.36350977420807
705,-3.0607476635514,-0.373120576143265,1.53240144252777,6.3107476635514,-0.231759563088417,0.848541736602783
706,-0.551435406698565,-0.370368242263794,1.93888449668884,-1.62081339712919,-0.245779290795326,2.07381582260132
707,3.61538461538461,-0.352932333946228,2.64998126029968,1,-0.245779290795326,2.88590884208679
708,5.64261744966443,-0.313648223876953,1.03275156021118,6.35570469798658,-0.210074588656425,0.956620752811432
709,-3.26570680628272,-0.338902652263641,2.71296167373657,6.68455497382199,-0.178924024105072,3.64945363998413
710,2.6647465437788,-0.319470971822739,1.40668511390686,6.59331797235023,-0.13330189883709,0.867290496826172
711,3.45142857142857,-0.303128153085709,1.37439823150635,6.79428571428571,-0.094673328101635,0.951168179512024
712,0.149532710280374,-0.284184098243713,1.2229517698288,-5.93691588785047,-0.0761836543679237,0.701020956039429
713,-2.18098159509202,-0.263723969459534,1.42820107936859,1.1180981595092,-0.0587296858429909,0.746088922023773
714,3.14887640449438,-0.2241600304842,1.10402035713196,-0.300561797752809,-0.0539080128073692,1.07538890838623
715,5.40476190476191,-0.176709830760956,4.07832431793213,3.51190476190476,-0.0341832526028156,4.38159132003784
716,-4.31515580736544,-0.182123765349388,1.36941313743591,-3.61827195467422,-0.0787958726286888,0.911753296852112
717,-6.64171974522293,-0.249332293868065,1.12477552890778,-1.22611464968153,-0.105962619185448,0.874905705451965
718,2.11320754716981,-0.262965768575668,1.67166173458099,-6.26415094339623,-0.16818779706955,1.02534413337708
719,-2.04677419354839,-0.272422671318054,0.554289638996124,0.469354838709678,-0.164989680051804,0.143795683979988
720,0.437673130193906,-0.307807862758636,1.41173446178436,0.108033240997229,-0.199451252818108,0.748006582260132
721,-1.5,-0.36470440030098,2.15920305252075,-1.5,-0.226730957627296,2.1710000038147
722,3.5,-0.354409068822861,2.09311747550964,-0.25,-0.257827997207642,2.24314260482788
723,4.55714285714286,-0.262267798185349,1.14204084873199,4.61020408163265,-0.212449118494987,0.666994214057922
724,2.25632911392405,-0.182572141289711,1.42175233364105,3.88924050632911,-0.198055490851402,0.93475079536438
725,6.74545454545455,-0.128106668591499,1.17292487621307,4.10454545454545,-0.158506974577904,0.718581199645996
726,-6.94409282700422,-0.161086887121201,3.23746418952942,0.385021097046415,-0.133273497223854,2.62866497039795
727,-2.17840375586854,-0.115852788090706,1.22543740272522,3.60328638497653,-0.090589202940464,1.06202244758606
728,6.73872180451128,-0.0775946453213692,0.974108099937439,1.55639097744361,-0.0618799328804016,0.750403881072998
729,-3.94594594594595,-0.0791620016098022,0.950119733810425,0.283783783783784,-0.0376587435603142,0.651894986629486
730,4.88607594936709,-0.0276433918625116,1.71959102153778,-3.86708860759494,-0.101772636175156,1.45973122119904
731,-2.41341991341991,-0.0148299122229218,1.10888779163361,3.35606060606061,-0.070538155734539,0.762274205684662
732,-0.25,-0.0329957008361816,2.2748486995697,1,-0.00971804931759834,2.42197036743164
733,1,0.00853040721267462,1.82541620731354,2.25,-0.00128431315533817,1.79122018814087
734,0.675,0.00636373506858945,1.41607797145844,1.075,0.00754899997264147,0.836804628372192
735,-2.17507418397626,-0.00965720508247614,1.0813581943512,-0.273738872403561,0.0149638429284096,0.823762357234955
736,-0.275974025974026,0.0297180246561766,0.905215442180634,-6.65584415584416,-0.0494729690253735,0.819845259189606
737,5.72826086956522,0.077906422317028,0.723673224449158,-0.217391304347826,-0.0575889125466347,0.402072876691818
738,-1.68093922651934,0.106553412973881,1.09641373157501,-7.6767955801105,-0.101975105702877,0.665503740310669
739,-2.07608695652174,0.110291443765163,0.8709916472435,0.706521739130435,-0.0820657908916473,0.537850856781006
740,0.828034682080925,0.142478346824646,1.03214681148529,5.09682080924856,-0.0214203204959631,0.810753166675568
741,-1.5,0.117478348314762,1.88573288917542,1,-0.0214203204959631,1.66303992271423
742,2.31463414634146,0.157017767429352,1.53144025802612,2.50975609756098,0.0634896755218506,1.07414793968201
743,4.84044368600683,0.173239767551422,2.51285624504089,-0.75,0.0773150846362114,1.55612277984619
744,-1.22583643122677,0.183400869369507,1.57655799388885,0.365241635687732,0.140054687857628,0.931215345859528
745,0.0394736842105263,0.216622158885002,1.47229182720184,0.480263157894737,0.149495527148247,1.1792471408844
746,3.5,0.26025053858757,2.38515853881836,1,0.203219622373581,2.57548666000366
747,5.5383008356546,0.27774977684021,1.92641758918762,3.61838440111421,0.254317790269852,2.4015007019043
748,-4.59319526627219,0.245599880814552,1.15444242954254,0.156804733727811,0.220501229166985,1.12593340873718
749,-0.928571428571428,0.207742735743523,1.54904103279114,-2.62142857142857,0.213025033473969,0.651888012886047
750,3.17539682539682,0.247245386242867,2.06972599029541,3.76904761904762,0.214818671345711,2.41979455947876
751,8.17207792207792,0.290090292692184,1.06958782672882,1.97077922077922,0.199065700173378,1.15175426006317
752,2.25,0.35392752289772,2.42495679855347,1,0.2746342420578,2.49234557151794
753,6.16715976331361,0.37211149930954,5.82796764373779,6.16715976331361,0.311481207609177,4.68885517120361
754,4.51775147928994,0.420989990234375,1.50214874744415,5.79733727810651,0.38935774564743,1.21404242515564
755,4.01295336787565,0.41348534822464,1.1191064119339,7.9520725388601,0.432327926158905,0.707905471324921
756,3.02898550724638,0.444626212120056,2.77049779891968,7.73188405797101,0.524206280708313,3.00792574882507
757,4.25,0.501092553138733,1.88163149356842,5.78947368421053,0.607752680778503,1.41494178771973
758,-3.37004405286344,0.471958965063095,1.75503325462341,3.95044052863436,0.610755681991577,1.32437443733215
759,4.36206896551724,0.488728016614914,1.71356785297394,3.02586206896552,0.639659225940704,1.45632004737854
760,3.36020408163265,0.537492036819458,1.36159586906433,2.22142857142857,0.690129160881042,0.985227704048157
761,-0.498201438848921,0.497702687978745,1.47870337963104,-7.61151079136691,0.655957460403442,1.2139265537262
762,-3.61170212765957,0.477962762117386,1.55924165248871,-0.324468085106383,0.642742335796356,1.22134411334991
763,2.29117647058824,0.530434191226959,1.81225526332855,-0.126470588235294,0.648793160915375,2.05135893821716
764,1.68421052631579,0.563944876194,3.29138469696045,3.48684210526316,0.688270568847656,2.78523349761963
765,4.8538961038961,0.598832607269287,1.23690056800842,2.25541125541126,0.698249697685242,0.858641922473907
766,2.02743902439024,0.59755140542984,1.22184360027313,3.51219512195122,0.70030152797699,0.93641060590744
767,3.5,0.579521119594574,2.51599740982056,1,0.715907573699951,2.50919055938721
768,2.25,0.608637571334839,2.36617994308472,3.5,0.775907576084137,2.52064943313599
769,3.23280423280423,0.623522877693176,1.7053302526474,-1.95634920634921,0.739531934261322,0.687099277973175
770,0.55511811023622,0.636783063411713,1.7829155921936,3.80511811023622,0.744535446166992,1.40424883365631
771,0.65609756097561,0.634490430355072,1.64254283905029,-4.29634146341463,0.742559850215912,0.940814018249512
772,2.58544303797468,0.697202920913696,1.68584752082825,0.686708860759494,0.757733166217804,1.31897854804993
773,2.68721461187215,0.69888311624527,1.71089887619019,2.9851598173516,0.815967559814453,1.28381872177124
774,-3.73181818181818,0.659004330635071,3.85979437828064,-3.99090909090909,0.791028141975403,3.41587495803833
775,3.93433179723502,0.662582397460938,2.09251022338867,3.1831797235023,0.789344608783722,1.10570323467255
776,-1.82963988919668,0.6562619805336,1.34072756767273,3.60664819944598,0.819617033004761,1.10839080810547
777,3.99342105263158,0.703576803207397,1.73358988761902,2.06578947368421,0.804295361042023,1.24099457263947
778,3.94631901840491,0.750607490539551,1.95264422893524,3.7898773006135,0.853643178939819,1.4265650510788
779,-6.69807121661721,0.707620322704315,1.28354895114899,2.19584569732938,0.83661550283432,1.11687409877777
780,0.294303797468354,0.701705276966095,1.65653610229492,6.97151898734177,0.847514927387238,1.43969440460205
781,1.54347826086957,0.769973874092102,0.875813484191895,1.92391304347826,0.929880082607269,0.711718499660492
782,2.29545454545454,0.785125374794006,2.43257284164429,-1.22727272727273,0.898667931556702,1.65393376350403
783,4.19685039370079,0.83409857749939,1.30940318107605,2.57283464566929,0.92637574672699,1.10584807395935
784,-2.75,0.828049182891846,2.69193196296692,4.75,0.963783144950867,2.59174180030823
785,1.47191011235955,0.824389636516571,2.05064511299133,-1.20224719101124,0.928962588310242,1.78302896022797
786,4.75,0.832722961902618,2.45604848861694,4.75,0.970629274845123,2.49989628791809
787,1.25886524822695,0.837076187133789,1.9899914264679,5.60815602836879,0.992213010787964,2.12098383903503
788,2.54399141630901,0.904168307781219,1.79946959018707,-3.82725321888412,1.03188896179199,1.8702380657196
789,-3.69302325581395,0.859379708766937,1.43010628223419,-1.07325581395349,1.05591368675232,1.29828727245331
790,1.27540106951872,0.857436120510101,1.47629642486572,4.31550802139037,1.07086479663849,1.11028385162354
791,6.74122807017544,0.890884101390839,1.46072995662689,-7.48684210526316,1.00272738933563,0.921741902828217
792,-0.90251572327044,0.853200674057007,1.88148069381714,1.18710691823899,1.00397479534149,1.58895444869995
793,6.10493827160494,0.855983555316925,1.37295508384705,1.42283950617284,0.991585493087769,0.906943202018738
794,0.727272727272727,0.880870759487152,1.67334687709808,7.07954545454545,1.06184446811676,1.47487831115723
795,-2.51388888888889,0.89165586233139,1.49547386169434,-0.24537037037037,1.02371942996979,1.34529149532318
796,1.95555555555556,0.898026347160339,1.67170202732086,5.75,1.05538618564606,1.51213276386261
797,2.24390243902439,0.920215785503387,1.88357615470886,1.60975609756098,1.06409132480621,1.39542043209076
798,4.35328638497653,0.920904338359833,1.43371152877808,-5.84272300469484,0.996656715869904,0.863266229629517
799,5.95054945054945,0.937362551689148,5.08453941345215,7.42032967032967,1.04076194763184,5.14513301849365
800,-2.6125730994152,0.947953283786774,1.37484264373779,1.58479532163743,1.02497625350952,1.10783100128174
801,2.71495327102804,0.992638349533081,1.58727931976318,4.3714953271028,1.03261542320251,1.2761504650116
802,2.59195402298851,1.00325131416321,1.15819334983826,4.53448275862069,1.03951191902161,1.01200652122498
803,-0.843023255813953,0.982631206512451,1.20956456661224,-7.65697674418604,1.01513206958771,-0.377127021551132
804,5.56164383561644,1.03144955635071,7.28286170959473,2.31164383561644,1.00991344451904,6.24558734893799
805,3.42168674698795,1.08183109760284,1.09355080127716,-2.36144578313253,1.04915034770966,1.08522880077362
806,-1.25935162094763,1.06906378269196,1.55241346359253,-4.82481296758105,1.01649308204651,0.942260086536407
807,1,1.10955703258514,1.92726564407349,2.25,1.05754840373993,1.83605313301086
808,5.61335403726708,1.14259648323059,1.49590253829956,1.92391304347826,1.10048019886017,1.16597318649292
809,0.951570680628272,1.1246964931488,2.7491762638092,6.68455497382199,1.13769423961639,3.18222427368164
810,2.39583333333333,1.18020105361938,1.6616370677948,5.29166666666667,1.17688095569611,1.35884523391724
811,3.98214285714286,1.21051096916199,1.85312950611115,4.16071428571428,1.20841038227081,1.643599152565
812,3.22727272727273,1.25910949707031,4.96055603027344,-2.65909090909091,1.23511517047882,3.45613384246826
813,4.32894736842105,1.2813024520874,1.92389440536499,3.07894736842105,1.27397477626801,1.78245091438293
814,2.3644578313253,1.27910995483398,1.52685952186584,-2.25903614457831,1.27478122711182,1.20811331272125
815,2.25,1.31967616081238,2.58555173873901,4.75,1.27803349494934,2.51509356498718
816,1,1.29467618465424,2.70731067657471,2.25,1.29470026493073,2.5726203918457
817,2.61190476190476,1.3054221868515,2.61980104446411,4.06428571428571,1.29012882709503,2.57457971572876
818,-4.87142857142857,1.27934598922729,1.39143884181976,2.47142857142857,1.29060506820679,0.540075898170471
819,3.69411764705882,1.27902209758759,1.67558658123016,-1.20294117647059,1.25731039047241,1.40678715705872
820,2.25,1.3540221452713,2.51977229118347,2.25,1.31815266609192,2.40800356864929
821,0.324561403508772,1.36594772338867,1.71502339839935,-0.915204678362573,1.29632294178009,0.937128961086273
822,1.64142857142857,1.37855732440948,1.74355185031891,3.87,1.32378971576691,1.05301284790039
823,2.25,1.38689064979553,1.96704304218292,3.5,1.32378971576691,1.87559103965759
824,2.25,1.37343895435333,2.24047446250916,2.25,1.30526900291443,2.02815318107605
825,4.9685628742515,1.41238629817963,7.15513944625854,8.16467065868263,1.36532759666443,5.11459970474243
826,-2.24282296650718,1.4241007566452,2.19195532798767,3.4377990430622,1.37324619293213,1.88278615474701
827,-3.80095541401274,1.38525104522705,1.58281016349792,3.57324840764331,1.38908767700195,1.0971667766571
828,3.5,1.37365543842316,2.62796115875244,2.25,1.42649912834167,2.62919545173645
829,4.65243902439024,1.39882361888885,1.43192362785339,1.59390243902439,1.43595564365387,1.22796547412872
830,-0.122641509433962,1.360875248909,1.84388709068298,1.14779874213836,1.42814350128174,1.33160173892975
831,1,1.35254192352295,2.46722507476807,2.25,1.41981017589569,2.48016858100891
832,-0.565420560747664,1.35539996623993,1.58316493034363,2.9018691588785,1.44392073154449,1.1358118057251
833,4.0625,1.37537801265717,2.21857881546021,4.4375,1.46631097793579,2.21916699409485
834,4.60294117647059,1.36400544643402,1.5268280506134,2.19117647058824,1.52049398422241,1.25024247169495
835,2.25,1.36215829849243,2.79050350189209,1,1.55371189117432,2.1834123134613
836,-0.25,1.35470223426819,2.56820726394653,4.75,1.55239605903625,2.60753870010376
837,4.75,1.3616863489151,2.12424492835999,3.5,1.56328678131104,2.10360455513
838,-4.6003717472119,1.3313182592392,2.10072088241577,5.31226765799257,1.57530403137207,1.27690196037292
839,2.76829268292683,1.33355259895325,1.8393646478653,5.53536585365854,1.59657943248749,1.5083634853363
840,-5.64364640883978,1.26426160335541,1.46615529060364,-1.0732044198895,1.59109139442444,1.03081381320953
841,4.03651685393258,1.27843236923218,1.56423354148865,1.66292134831461,1.56985080242157,1.14318835735321
842,3.10599078341014,1.31747221946716,1.98755431175232,2.20506912442396,1.56955122947693,1.47644376754761
843,5.62849162011173,1.30125153064728,1.29214859008789,4.21368715083799,1.56776320934296,0.976851642131805
844,3.76025641025641,1.28231823444366,3.89384770393372,4.39871794871795,1.58466446399689,3.67567372322083
845,8.01315789473684,1.36165881156921,1.80116355419159,5.78508771929825,1.63223576545715,1.45048487186432
846,5.275,1.46295595169067,1.85787963867188,1.6,1.66810524463654,1.25001335144043
847,7.15822784810127,1.539834856987,5.83945608139038,5.87658227848101,1.72252607345581,5.55209255218506
848,0.125661375661376,1.51658368110657,2.55467557907104,3.86640211640212,1.74380922317505,2.57177186012268
849,2.25,1.49788284301758,2.77053761482239,2.25,1.7585334777832,2.60307264328003
850,0.204761904761905,1.48133325576782,4.06389951705933,3.63809523809524,1.75897479057312,3.30568981170654
851,5.75806451612903,1.50805354118347,4.41876220703125,6.76612903225806,1.8004457950592,3.4933135509491
852,6.58450704225352,1.57499623298645,1.8027411699295,6.60915492957746,1.86310827732086,1.47861218452454
853,1.97077922077922,1.58872842788696,1.9013260602951,3.23376623376623,1.8859224319458,1.67601072788239
854,1.98121387283237,1.62432777881622,1.52990353107452,3.32947976878613,1.89959251880646,0.991802155971527
855,0.131656804733728,1.6456104516983,2.6705014705658,6.82840236686391,1.90304338932037,2.86580085754395
856,-1.5,1.6392867565155,2.34480094909668,6,1.95384883880615,2.19065809249878
857,4.75,1.64685082435608,2.27508187294006,2.25,1.9621821641922,2.24951529502869
858,0.839805825242719,1.61483204364777,1.54898035526276,-2.60436893203884,1.90244829654694,1.11232495307922
859,4.10185185185185,1.66394913196564,1.90829360485077,5.61111111111111,1.8952921628952,1.53786599636078
860,3.0470297029703,1.66649770736694,1.72485601902008,1.89108910891089,1.8639440536499,1.25504541397095
861,-7.30426356589147,1.59479308128357,1.56282329559326,-4.64922480620155,1.78765404224396,1.37493336200714
862,-2.92741935483871,1.57428014278412,1.77757811546326,-9,1.76723349094391,1.3635481595993
863,1.31657223796034,1.59759712219238,1.8441389799118,-0.71671388101983,1.7550014257431,1.48964560031891
864,-0.842391304347826,1.57098865509033,1.29982542991638,6.84782608695652,1.80265724658966,0.946982204914093
865,2.25,1.54995691776276,2.26800441741943,2.25,1.79424440860748,2.14987373352051
866,-4.98342541436464,1.54550182819366,1.78919434547424,-4.91574585635359,1.78559470176697,1.57133853435516
867,8.02669902912621,1.64329135417938,1.7787811756134,5.47087378640777,1.8302413225174,1.57304346561432
868,-3.11,1.60846996307373,1.65334320068359,-4.87666666666667,1.83949112892151,1.00659465789795
869,2.49090909090909,1.63872110843658,1.807537317276,4.86363636363636,1.86878645420074,1.40068984031677
870,0.547101449275362,1.63945055007935,2.16975045204163,-5.80434782608696,1.82937049865723,1.5173978805542
871,6.28571428571429,1.69135522842407,5.58636617660522,8.28571428571428,1.89460861682892,5.1770544052124
872,2.67751479289941,1.68587207794189,2.01028919219971,3.90976331360947,1.92234027385712,1.66788589954376
873,3.5,1.67882442474365,2.70398855209351,-4,1.86493897438049,2.17697429656982
874,3.82843137254902,1.68930518627167,2.80987620353699,5.45098039215686,1.87535071372986,2.71613526344299
875,1,1.6510021686554,2.19654893875122,4.75,1.87965369224548,2.10940170288086
876,1.81508875739645,1.70939660072327,1.85894656181335,2.93343195266272,1.89664304256439,1.47341299057007
877,-1.56128133704735,1.71351075172424,2.42307710647583,3.77158774373259,1.89776492118835,2.34675765037537
878,-1.52808988764045,1.65839874744415,1.96925806999207,-2.19943820224719,1.87272620201111,2.03823614120483
879,4.23872180451128,1.71296322345734,1.41587972640991,1.08834586466165,1.87809002399445,1.11693716049194
880,0.126811594202898,1.68123483657837,2.11641764640808,-2.33333333333333,1.88831508159637,1.34019255638123
881,1.61580086580086,1.70809626579285,1.55953550338745,2.3538961038961,1.88163375854492,1.02632832527161
882,-10.6761363636364,1.63858866691589,1.90630698204041,1.48863636363636,1.88489139080048,1.83817219734192
883,3.66847826086956,1.65637850761414,2.03392934799194,-0.831521739130435,1.8643479347229,1.48203384876251
884,5.09459459459459,1.68584251403809,1.68169474601746,3.09459459459459,1.87781190872192,1.20699989795685
885,-0.35655737704918,1.69796586036682,2.80581378936768,-5.32377049180328,1.84414505958557,2.424236536026
886,3.64261744966443,1.72408998012543,1.65007531642914,4.50167785234899,1.91852843761444,1.34485912322998
887,-3.72270742358079,1.66108334064484,2.03625154495239,0.922489082969432,1.92612767219543,1.55284678936005
888,-0.995049504950495,1.66565597057343,2.2717809677124,1.66089108910891,1.98837888240814,1.87731719017029
889,-2.35632183908046,1.66378772258759,2.27420592308044,2.29597701149425,1.99897539615631,1.1869353055954
890,4.38737201365188,1.68751668930054,4.55341005325317,5.86774744027304,2.00411510467529,3.04417824745178
891,2.59,1.7147833108902,2.12734723091125,6.74,2.04238152503967,1.74394965171814
892,0.2,1.7006858587265,2.37808275222778,2.89782608695652,2.0449686050415,2.14093232154846
893,1.45675105485232,1.67812788486481,4.71140289306641,-2.69936708860759,2.03197288513184,3.56689286231995
894,4.75,1.71796667575836,2.59226655960083,4.75,2.06120467185974,2.63566493988037
895,-0.936170212765957,1.71146237850189,2.13463401794434,-1.11702127659574,2.05055618286133,1.99661755561829
896,3.5,1.71146237850189,2.46151161193848,4.75,2.07555627822876,2.35471081733704
897,-0.886363636363636,1.66863131523132,1.45640289783478,3.84090909090909,2.07703948020935,1.07985806465149
898,-1.96451612903226,1.68615579605103,1.01291882991791,-5.36290322580645,2.04024147987366,0.540077388286591
899,1,1.69901311397552,2.58735489845276,4.75,2.08938431739807,2.31821179389954
900,0.844117647058824,1.68347108364105,2.35368895530701,4.09117647058824,2.09153175354004,1.83098745346069
901,5.5,1.6656574010849,1.43466031551361,3.52272727272727,2.10187816619873,1.13829278945923
902,2.4488188976378,1.66698276996613,2.08703970909119,5.34645669291339,2.13085460662842,1.95620155334473
903,0.921383647798742,1.63201093673706,2.19938802719116,2.69025157232704,2.10767507553101,1.76172018051147
904,-0.189130434782609,1.6006315946579,2.4747622013092,5.05,2.10269284248352,2.46567010879517
905,2.25541125541126,1.58891475200653,1.62067174911499,-0.98051948051948,2.04314231872559,1.38524007797241
906,2.53947368421053,1.58565139770508,2.33381485939026,-0.605263157894737,1.98756122589111,2.00699973106384
907,-1.14634146341463,1.54967558383942,1.84148406982422,-3.57621951219512,1.92512333393097,1.55899548530579
908,6.70440251572327,1.61683857440948,2.35364270210266,6.97012578616352,1.94525456428528,2.03913378715515
909,2.96341463414634,1.6075142621994,2.10176992416382,3.75975609756098,1.95014727115631,1.8503338098526
910,4.45588235294118,1.61481869220734,2.11327815055847,5.32647058823529,1.97084760665894,1.77536416053772
911,0.397727272727272,1.62079167366028,2.31192278862,0.272727272727273,2.02340912818909,1.76684725284576
912,2.81481481481481,1.66363501548767,2.12374114990234,1.12037037037037,2.03304147720337,1.13816702365875
913,5.25161290322581,1.68337142467499,4.26263666152954,2.75161290322581,2.05222868919373,4.36175394058228
914,4.8019801980198,1.70415651798248,2.47862935066223,4.23514851485148,2.05721735954285,2.03125929832458
915,4.72413793103448,1.70329141616821,1.63707602024078,3.47413793103448,2.06534218788147,1.35908675193787
916,3.5,1.71310830116272,2.80945944786072,2.25,2.05692744255066,2.74560546875
917,2.08860759493671,1.70369923114777,2.31678867340088,6.92405063291139,2.09642100334167,2.10755825042725
918,4.86705202312139,1.72114622592926,1.76578605175018,1.61705202312139,2.08386826515198,1.24839508533478
919,3.54281767955801,1.72321307659149,1.71160471439362,-5.87707182320442,2.05773019790649,1.19524085521698
920,0.855095541401274,1.72521305084229,2.10376048088074,1.87420382165605,2.04485726356506,1.46352672576904
921,3.5575117370892,1.74455571174622,1.90943896770477,4.1349765258216,2.10106611251831,1.52853262424469
922,3.32283464566929,1.74947166442871,1.70296502113342,4.57283464566929,2.12697339057922,1.34763610363007
923,4.75,1.763223528862,2.51947402954102,4.75,2.13873910903931,2.51617622375488
924,-0.538709677419355,1.78451073169708,1.12028050422668,4.28548387096774,2.19391512870789,0.749359786510468
925,-4.81395348837209,1.72618877887726,0.748365879058838,4.66279069767442,2.20377922058105,-0.352947354316711
926,-2,1.72505307197571,1.89977121353149,-1.25714285714286,2.17135405540466,0.53094744682312
927,2.05337078651685,1.71211934089661,1.76212465763092,3.30337078651685,2.17960453033447,1.73381900787354
928,1.51322751322751,1.6958988904953,2.08565616607666,3.72486772486772,2.17917108535767,1.48187744617462
929,0.444444444444445,1.74351561069489,2.78750371932983,2.38492063492063,2.18043160438538,2.40976738929749
930,3.5,1.7648868560791,2.51817274093628,1,2.14062142372131,2.36635375022888
931,6.56659388646288,1.79837441444397,2.3091447353363,2.75327510917031,2.14615058898926,1.73380255699158
932,2.17168674698795,1.7975492477417,1.41424918174744,1.39156626506024,2.16360950469971,1.21233332157135
933,1.02439024390244,1.77639949321747,2.89372420310974,6.36585365853658,2.18889617919922,2.47945022583008
934,4.75,1.82639956474304,2.64271950721741,4.75,2.18889617919922,2.41569519042969
935,6.525,1.86008667945862,2.39482665061951,3.375,2.21941113471985,1.91530108451843
936,6,1.86842000484467,2.64548897743225,6,2.22774457931519,2.5867018699646
937,6.47727272727273,1.90320944786072,2.20746517181396,5.03181818181818,2.22390222549438,1.67532014846802
938,2.25,1.9012496471405,2.97111511230469,6,2.2894172668457,2.72648549079895
939,3.79220779220779,1.95115113258362,2.03172206878662,1.67207792207792,2.30771946907043,1.60639667510986
940,1.68518518518519,1.95388305187225,2.04107022285461,6.59876543209876,2.32294130325317,1.44021785259247
941,3.5,1.93227481842041,2.67110109329224,4.75,2.40452027320862,2.56156659126282
942,6.53947368421053,1.98188805580139,2.36953020095825,4.02631578947368,2.42344832420349,2.03522729873657
943,3.5,1.96452188491821,2.77278995513916,3.5,2.43729615211487,2.57446837425232
944,2.25,1.97467350959778,2.71726512908936,3.5,2.41343235969543,2.5681619644165
945,3.5,2.01476573944092,2.9325213432312,4.75,2.44673490524292,2.86877942085266
946,1.09375,2.00902080535889,2.64453530311584,5.28125,2.44360971450806,2.49633121490479
947,6,2.03406143188477,2.3374342918396,2.25,2.44787812232971,2.17272639274597
948,1.91402116402116,2.01779961585999,2.46682834625244,6.9047619047619,2.53286147117615,2.63336491584778
949,4.51388888888889,2.00822162628174,2.32684922218323,7.76388888888889,2.53515195846558,2.03091812133789
950,3.14897959183673,2.0466320514679,2.25271511077881,7.85510204081633,2.57695388793945,1.61440634727478
951,0.5,2.03186559677124,2.35780954360962,-2.07386363636364,2.53398489952087,2.24746084213257
952,-0.886266094420601,2.00867748260498,2.32511615753174,1.12231759656652,2.51123690605164,2.31356525421143
953,-1.5,2.00429773330688,2.47223138809204,3.5,2.58561658859253,2.21098065376282
954,9.15783410138249,2.0282723903656,3.58869338035583,6.35483870967742,2.61257147789001,2.63532543182373
955,1.90909090909091,2.01818823814392,3.40896248817444,-3.34090909090909,2.60604166984558,2.41971755027771
956,8.54523809523809,2.08355212211609,5.12274217605591,6.56190476190476,2.6819531917572,3.51392102241516
957,-2.86538461538461,2.05778288841248,2.50202584266663,-0.115384615384615,2.66618371009827,2.15794014930725
958,1.03260869565217,2.02724456787109,1.53601694107056,2.40760869565217,2.66940832138062,1.23494338989258
959,4.75,2.05256724357605,2.72293567657471,3.5,2.64817810058594,2.74408483505249
960,6.06962025316456,2.07705926895142,5.48376274108887,5.90822784810126,2.65228843688965,5.46038389205933
961,6.64130434782609,2.09478712081909,2.51502537727356,4.14130434782609,2.6521589756012,1.76282572746277
962,1.48630136986301,2.08318066596985,7.5872802734375,5.56164383561644,2.70696401596069,6.77790212631226
963,7.18956043956044,2.10225129127502,5.60097122192383,7.93956043956044,2.73936820030212,4.94804620742798
964,4.75,2.11815500259399,2.87562465667725,3.5,2.77776169776917,2.69730019569397
965,4.75,2.13482165336609,2.89579677581787,-0.25,2.74442839622498,2.55346894264221
966,8.07456140350877,2.18198537826538,2.63755249977112,6.82456140350877,2.77492547035217,2.19192147254944
967,3.71597633136095,2.1893458366394,5.61043739318848,7.42307692307692,2.79731726646423,4.54893445968628
968,1,2.22848868370056,3.03161573410034,2.25,2.79584121704102,3.03185653686523
969,1.23026315789474,2.21206307411194,2.62488460540771,5.68421052631579,2.84175586700439,2.24962520599365
970,6.74,2.24199628829956,2.65409827232361,5.49,2.86335587501526,2.22429895401001
971,4.86206896551724,2.27224659919739,2.67541599273682,5.77586206896552,2.90796279907227,2.363450050354
972,7.72866894197952,2.31282806396484,4.62041425704956,8.36774744027304,2.93794775009155,3.28455853462219
973,-2.52173913043478,2.28101634979248,2.59786295890808,-3.77173913043478,2.88946962356567,1.38326728343964
974,2.69148936170213,2.28395986557007,2.58427715301514,-5.89184397163121,2.83519053459167,1.78989553451538
975,1.42352941176471,2.26032614707947,2.64034724235535,3.17352941176471,2.8019163608551,2.55219173431396
976,4.91455696202532,2.30804204940796,2.7516815662384,3.01582278481013,2.79910326004028,2.16554975509644
977,6.84615384615385,2.37902283668518,2.49594283103943,5.15976331360947,2.80967974662781,1.99929332733154
978,2.88934426229508,2.37495183944702,3.15215277671814,-0.790983606557377,2.78940677642822,2.40778231620789
979,-8.3625730994152,2.28818511962891,1.7121993303299,5.16959064327485,2.81324458122253,2.03192281723022
980,3.86206896551724,2.3147497177124,2.42132997512817,0.471264367816092,2.80873441696167,0.978277981281281
981,3.5,2.3314163684845,2.96612453460693,3.5,2.81706762313843,2.89809489250183
982,3.5,2.3585193157196,2.27260828018188,1,2.80438852310181,2.14365267753601
983,6.36666666666667,2.37388038635254,2.58604145050049,5.65,2.81247162818909,2.45788145065308
984,-0.81544502617801,2.33775782585144,4.64237499237061,2.75785340314136,2.81624960899353,4.27185153961182
985,4.75,2.35442447662354,2.95003581047058,3.5,2.83291625976562,2.55920648574829
986,-14,2.26275777816772,2.05178785324097,3.6039603960396,2.82527589797974,1.70113968849182
987,2.85287081339713,2.25011014938354,2.37189960479736,2.1255980861244,2.81611323356628,1.13567817211151
988,8.15666666666667,2.3351571559906,1.96465337276459,6.90666666666667,2.82674264907837,1.60831272602081
989,6.65680473372781,2.36108040809631,2.35642004013062,5.40680473372781,2.8258855342865,2.07136058807373
990,4.75909090909091,2.43043208122253,5.23974704742432,7.92727272727273,2.88588881492615,3.84731030464172
991,3.61986301369863,2.427654504776,2.67687201499939,6.66780821917808,2.91925477981567,2.18433499336243
992,4.7280701754386,2.43846845626831,2.28784084320068,4.43859649122807,2.93414521217346,1.81758296489716
993,1.71808510638298,2.41239905357361,2.458829164505,6.95744680851064,2.95243644714355,2.06813335418701
994,4.98234200743494,2.42054653167725,2.4970977306366,1.51951672862454,2.93324208259583,1.93735468387604
995,5.54428571428571,2.40408730506897,2.3002564907074,5.54428571428571,2.93163704872131,2.08767342567444
996,-3.41436464088398,2.34615802764893,2.43614840507507,-0.541436464088398,2.91736054420471,2.41182971000671
997,4.75,2.33010339736938,2.79520392417908,6,2.91818332672119,2.55139088630676
998,3.50280898876405,2.35261750221252,2.51061773300171,2.02247191011236,2.90589046478271,2.33984637260437
999,5.44736842105263,2.37393355369568,5.40186595916748,4.56578947368421,2.92132902145386,3.03985977172852
1000,3.98159509202454,2.39911222457886,2.49405550956726,8.2760736196319,2.95224905014038,2.34337496757507
1001,0.525401069518716,2.36422777175903,2.30345320701599,5.77540106951872,2.94564414024353,2.16792225837708
1002,2.85087719298246,2.33933663368225,2.48965096473694,-2.83771929824561,2.88266468048096,2.07587003707886
1003,1.51785714285714,2.33631706237793,2.69931149482727,-3.57142857142857,2.83729696273804,1.99703288078308
1004,3.5,2.34644246101379,2.76029586791992,4.75,2.84676694869995,2.71138215065002
1005,1.08170731707317,2.35277628898621,1.89729642868042,5.43780487804878,2.83749628067017,1.60771870613098
1006,3.01086956521739,2.38284873962402,1.60930275917053,-2.35869565217391,2.78177165985107,1.46563291549683
1007,2.84117647058824,2.37012338638306,2.7711775302887,5.34117647058824,2.8023796081543,2.41010141372681
1008,4.74099099099099,2.39613127708435,2.30592179298401,4.03153153153153,2.84661889076233,1.55205798149109
1009,4.12665198237886,2.39629650115967,2.15923285484314,3.24559471365639,2.83084869384766,1.9874370098114
1010,4.86335403726708,2.40840530395508,2.51680850982666,2.73757763975155,2.83649182319641,2.02443337440491
1011,-0.740963855421687,2.45216059684753,2.47549748420715,0.858433734939759,2.87320971488953,1.99015522003174
1012,-0.145833333333334,2.47070455551147,2.24545073509216,2.60416666666667,2.95057082176208,1.97321963310242
1013,1.22948717948718,2.47012400627136,4.65827417373657,2.76282051282051,2.97376751899719,3.73029494285583
1014,4.29694835680751,2.50438618659973,2.3961923122406,3.41079812206573,2.95085406303406,1.93417060375214
1015,1.44685990338164,2.49903202056885,2.34916234016418,6.70652173913044,2.98056435585022,1.94522106647491
1016,0.558536585365854,2.53597855567932,2.37295365333557,6.80853658536585,3.0587260723114,1.97782456874847
1017,-5.31182795698925,2.44705486297607,2.38127827644348,-10.2956989247312,2.95361566543579,1.86723101139069
1018,8.7196261682243,2.52591919898987,2.51491069793701,5.52570093457944,3.02296471595764,1.82752895355225
1019,-3.64196675900277,2.4850332736969,2.6992506980896,-4.07548476454294,2.96337080001831,1.91028916835785
1020,-11.5,2.40471935272217,2.51274991035461,6,3.0420663356781,2.58838582038879
1021,3.57067510548523,2.38661909103394,5.19458675384521,5.93987341772152,3.02642750740051,3.96482753753662
1022,3.82374100719425,2.39426064491272,2.51792526245117,2.02338129496403,3.01385140419006,2.07731556892395
1023,3.14887640449438,2.3919198513031,2.58302760124207,6.89887640449438,3.08651089668274,2.08739471435547
1024,-5.22093023255814,2.3315908908844,2.07719922065735,2.46705426356589,3.06661772727966,1.88423943519592
1025,2.76948051948052,2.34338736534119,2.57728862762451,5.67207792207792,3.0727653503418,2.2871105670929
1026,8.19692737430168,2.38593292236328,2.03078174591064,6.13966480446927,3.09414029121399,1.44458556175232
1027,-3.20560747663551,2.37497043609619,2.77611875534058,3.6214953271028,3.09313917160034,2.09112429618835
1028,8.06159420289855,2.43890166282654,3.27527451515198,5.1195652173913,3.14193272590637,3.43897128105164
1029,2.25,2.42564368247986,2.79947590827942,3.5,3.15801072120667,2.61434650421143
1030,6.84326424870466,2.47042012214661,2.24662256240845,1.84326424870466,3.18585443496704,1.60172390937805
1031,5.40828402366864,2.49570322036743,3.03578972816467,9.60502958579882,3.23419523239136,3.47794342041016
1032,6,2.60687756538391,3.23894381523132,1,3.23093771934509,2.81887078285217
1033,3.33426183844011,2.60464954376221,2.93183565139771,0.0912256267409468,3.23708915710449,2.677898645401
1034,-4.02272727272727,2.54386711120605,5.67194366455078,9.45454545454545,3.27948904037476,5.17128849029541
1035,8.14261744966443,2.60052847862244,2.34061050415039,4.50167785234899,3.34499192237854,1.7418566942215
1036,2.02649769585253,2.58975434303284,2.69124841690063,2.36290322580645,3.33073329925537,2.24321222305298
1037,3.21992481203007,2.63603854179382,2.30440330505371,2.45112781954887,3.34092450141907,1.75875961780548
1038,1.20813953488372,2.65072655677795,2.24214911460876,3.70813953488372,3.35457277297974,1.94673800468445
1039,6.44264069264069,2.70938611030579,2.50000333786011,-1.62662337662338,3.32842254638672,2.04600977897644
1040,4.70098039215686,2.71147680282593,3.02694129943848,5.2843137254902,3.32453298568726,2.51623058319092
1041,-2.9185552407932,2.67475318908691,2.73819255828857,5.28328611898017,3.31482100486755,2.28298807144165
1042,-1.28366583541147,2.66486215591431,2.09851098060608,5.10099750623441,3.32950878143311,1.63596856594086
1043,0.0265957446808516,2.65532779693604,2.33717322349548,-0.787234042553191,3.34225630760193,2.25257277488708
1044,8.59453781512605,2.68095803260803,2.15037751197815,-1.99579831932773,3.29728436470032,0.932047486305237
1045,2.25,2.70219922065735,3.20033884048462,-4,3.27806448936462,2.27515840530396
1046,6.48809523809524,2.7221200466156,6.30734395980835,8.28571428571428,3.30163598060608,5.11694049835205
1047,3.51699029126214,2.75147557258606,2.40839624404907,0.558252427184466,3.27975153923035,1.66036427021027
1048,5.73952095808383,2.80283570289612,6.52850580215454,5.44610778443114,3.35181140899658,6.50507736206055
1049,6.91504854368932,2.8422691822052,2.39912962913513,2.2621359223301,3.33522582054138,2.06566381454468
1050,2.07715133531157,2.85048961639404,2.25834059715271,2.22255192878338,3.32276821136475,1.63914310932159
1051,5.13986784140969,2.84808874130249,2.15865921974182,2.40859030837004,3.31534051895142,1.92781066894531
1052,7.60873015873016,2.88248825073242,3.02511811256409,2.29920634920635,3.29502558708191,2.35048341751099
1053,4.52562326869806,2.90651655197144,2.77615332603455,1.8303324099723,3.28929281234741,2.12652182579041
1054,0.669811320754717,2.9122428894043,2.22980690002441,5.52358490566038,3.29244995117188,2.0436098575592
1055,6.12134502923977,2.93801546096802,2.24646735191345,7.65350877192983,3.35001015663147,2.0968964099884
1056,6.60891089108911,2.96514534950256,3.18862748146057,2.9009900990099,3.37338542938232,2.63074898719788
1057,7.59090909090909,3.02339363098145,5.70568180084229,5.09090909090909,3.43116617202759,4.63901233673096
1058,-0.25,2.97703075408936,2.97089862823486,4.75,3.41636562347412,2.47433114051819
1059,4.17168674698795,2.98508596420288,2.03274273872375,5.42168674698795,3.42744517326355,1.60339677333832
1060,3.29347826086957,2.97733640670776,2.92807745933533,5.63405797101449,3.42949533462524,1.92210519313812
1061,8.17207792207792,3.02916550636292,2.8963360786438,3.79220779220779,3.45295858383179,2.37591528892517
1062,4.3941717791411,3.0396945476532,2.70386672019958,7.0260736196319,3.49232983589172,2.41488862037659
1063,5.10135135135135,3.03869271278381,2.60351061820984,5.83108108108108,3.512859582901,1.97526895999908
1064,2.21341463414634,3.02143573760986,2.64666223526001,6.80853658536585,3.53001546859741,2.14699029922485
1065,-2.99806201550388,2.96995449066162,2.07859468460083,0.079457364341085,3.50738453865051,1.8526097536087
1066,4.8782722513089,2.9791431427002,4.0756459236145,3.28141361256544,3.51426029205322,4.15656852722168
1067,5.30251141552511,3.00056934356689,3.04517674446106,7.91780821917808,3.5208854675293,2.52691245079041
1068,9.14473684210526,3.02908682823181,2.54105377197266,9.72368421052632,3.57492995262146,2.32091093063354
1069,-0.0603448275862066,3.00506591796875,3.12112832069397,4.80459770114943,3.64614105224609,2.80266833305359
1070,3.78735632183908,3.02461433410645,2.50107145309448,0.574712643678161,3.63747763633728,1.12478029727936
1071,7.61866359447005,3.05168867111206,4.46499013900757,4.18433179723502,3.63780689239502,4.05966806411743
1072,2.25,3.04453659057617,3.15138530731201,4.75,3.63898801803589,2.81357979774475
1073,8.01315789473684,3.06629061698914,2.75983166694641,6.66228070175439,3.65173673629761,2.18154740333557
1074,-0.867210682492582,3.06410074234009,2.34484338760376,-0.537833827893175,3.6195809841156,1.74138760566711
1075,1.74033149171271,3.10779571533203,2.63672471046448,5.86878453038674,3.62762117385864,1.87435150146484
1076,1.79439252336449,3.13309192657471,2.60901117324829,-0.705607476635514,3.63129806518555,2.05793428421021
1077,2.02272727272727,3.132887840271,2.69743990898132,4.23051948051948,3.63747882843018,1.97239446640015
1078,6.53488372093023,3.16636538505554,1.23384809494019,0.0697674418604651,3.61311149597168,-0.919780611991882
1079,7.59285714285714,3.21402168273926,2.77037692070007,6.60428571428571,3.64124059677124,2.43416333198547
1080,-1.03990610328638,3.18375539779663,2.85589480400085,4.29694835680751,3.66322016716003,2.24372339248657
1081,4.91812865497076,3.17276573181152,3.11422920227051,6.53947368421053,3.68846154212952,2.3295271396637
1082,4.05337078651685,3.18531036376953,1.49600183963776,-1.69662921348315,3.66787362098694,0.824872374534607
1083,6,3.21848082542419,3.36495184898376,6,3.66543459892273,2.95506834983826
1084,2.60416666666667,3.20417547225952,2.60129332542419,3.85416666666667,3.65946245193481,2.21581244468689
1085,-0.780487804878049,3.15547227859497,2.80603313446045,-0.789634146341464,3.63169836997986,2.17916321754456
1086,4.89497041420118,3.14810538291931,3.04880118370056,8.31508875739645,3.64713215827942,3.28418183326721
1087,6.28846153846154,3.14684653282166,5.62239408493042,3.67032967032967,3.6380558013916,6.12211322784424
1088,6.8539603960396,3.17753958702087,2.6853015422821,3.1039603960396,3.61874866485596,1.85315012931824
1089,4.75,3.18392491340637,2.89314842224121,4.75,3.63926792144775,2.80279135704041
1090,6,3.21269035339355,3.18941330909729,3.5,3.61860966682434,3.11363482475281
1091,8.02669902912621,3.24286818504333,2.43968081474304,5.52669902912621,3.62378740310669,2.22091007232666
1092,7.5063025210084,3.24931406974792,2.41402983665466,6.25,3.6386125087738,2.10145115852356
1093,1.92391304347826,3.23880648612976,2.79577851295471,0.551242236024845,3.61895418167114,2.1912739276886
1094,6.74545454545455,3.26877641677856,2.49963521957397,7.99545454545455,3.64892363548279,1.99037909507751
1095,6,3.28544306755066,3.26864337921143,4.75,3.64892363548279,2.87879133224487
1096,4.89887640449438,3.31081056594849,2.64474391937256,6.89887640449438,3.65970778465271,2.06340050697327
1097,5.00838926174497,3.30419993400574,2.4805760383606,6.89261744966443,3.69065880775452,1.94804537296295
1098,4.69377990430622,3.32273149490356,2.36457347869873,-1.88875598086124,3.63203525543213,0.768579959869385
1099,0.0652866242038217,3.29307413101196,3.11897683143616,3.92834394904459,3.60646486282349,2.49443602561951
1100,4.75,3.30374789237976,3.18784809112549,3.5,3.57743072509766,2.90636467933655
1101,6.15666666666667,3.34145879745483,2.58036231994629,8.15666666666667,3.6456344127655,1.894535779953
1102,4.09117647058824,3.37464165687561,3.21775555610657,5.34117647058824,3.67376017570496,2.7070529460907
1103,4.86705202312139,3.41708850860596,2.61166262626648,5.48410404624277,3.68698740005493,1.63826835155487
1104,3.03548387096774,3.37627267837524,1.32557666301727,1.78548387096774,3.65652513504028,1.07070708274841
1105,5.04746835443038,3.39719533920288,3.10299038887024,4.9620253164557,3.71187829971313,2.60233044624329
1106,4.30056179775281,3.36889719963074,2.68058800697327,6.75280898876404,3.71315097808838,2.38466119766235
1107,2.86144578313253,3.40707635879517,2.79276084899902,5.72590361445783,3.7520923614502,2.3240180015564
1108,2.25,3.41519236564636,3.15235114097595,2.25,3.75104165077209,2.80595445632935
1109,2.25,3.39852571487427,2.5307252407074,3.5,3.75104165077209,2.19162559509277
1110,5.59326424870466,3.39534997940063,2.52112793922424,5.05569948186529,3.74535846710205,1.85999131202698
1111,6.10211267605634,3.39175534248352,2.7214949131012,7.92370892018779,3.77057456970215,2.04466366767883
1112,4.75,3.41351366043091,3.34391975402832,2.25,3.74849700927734,3.07903242111206
1113,8.09615384615385,3.41955780982971,3.07848215103149,9.52810650887574,3.7590868473053,2.62187170982361
1114,5.48872180451128,3.42448234558105,2.58485984802246,6.73872180451128,3.78067827224731,2.02294063568115
1115,4.6047619047619,3.4235143661499,5.76720952987671,4.14761904761905,3.8099958896637,4.40975713729858
1116,8.93636363636364,3.42925953865051,6.00123262405396,7.21818181818182,3.81261992454529,5.0817813873291
1117,4.15780141843972,3.43220496177673,2.69356083869934,4.50886524822695,3.79319214820862,2.72306180000305
1118,4.5,3.45553827285767,3.071617603302,1.68333333333333,3.78941416740417,2.88894534111023
1119,4.10802469135803,3.47472333908081,2.70757079124451,5.91049382716049,3.79092288017273,2.1579532623291
1120,5.275,3.46495676040649,2.82040596008301,5.35,3.78998947143555,2.25439858436584
1121,6,3.47254323959351,3.18987464904785,6,3.79148364067078,3.03978228569031
1122,6.30769230769231,3.46306967735291,5.43143701553345,9.39871794871795,3.79835653305054,4.65671586990356
1123,5.59782608695652,3.51720023155212,2.35185790061951,2.61413043478261,3.84092926979065,1.61099350452423
1124,3.5,3.52259039878845,3.09710931777954,4.75,3.91187500953674,2.85610771179199
1125,6,3.55310010910034,3.23263120651245,1,3.89738488197327,2.59897685050964
1126,7.72866894197952,3.57186126708984,4.90785264968872,10.070819112628,3.94441819190979,3.27887797355652
1127,4.21808510638298,3.55434083938599,2.92534041404724,6.14893617021277,3.95101237297058,2.40928864479065
1128,5,3.56841135025024,3.22692513465881,7.45682451253482,4.00599813461304,2.92618227005005
1129,6.73671497584541,3.6690731048584,2.54613971710205,-4.16666666666667,3.94375658035278,2.09489846229553
1130,4.48148148148148,3.67320275306702,2.62860512733459,6.9047619047619,3.9866464138031,2.4012451171875
1131,2.25,3.66486930847168,3.26801514625549,4.75,3.99497961997986,2.99325585365295
1132,4.75,3.67320275306702,3.12001371383667,6,4.02831315994263,2.94374346733093
1133,5.45901639344262,3.66715168952942,3.37469434738159,6.70901639344262,4.03537273406982,3.12237596511841
1134,4.93265306122449,3.70547246932983,2.83206343650818,6.18265306122449,4.05820465087891,2.19202351570129
1135,-3.92603550295858,3.64763188362122,3.02810287475586,-2.11538461538462,4.0207691192627,2.50100421905518
1136,-3.72257383966245,3.71614837646484,4.98235559463501,3.57067510548523,4.02054786682129,3.74137473106384
1137,8.22012578616352,3.75193023681641,3.22855734825134,4.50471698113208,4.03640794754028,2.93613123893738
1138,2.86363636363636,3.71664309501648,2.08276987075806,-4.88636363636364,3.95778799057007,1.14160192012787
1139,3.5,3.69559741020203,2.87351131439209,6,3.96174240112305,2.07096982002258
1140,-1,3.65720367431641,2.93008875846863,4.21590909090909,3.9370002746582,2.69733262062073
1141,6.17857142857143,3.67426180839539,2.63588285446167,6.78896103896104,3.93780755996704,2.04240608215332
1142,9.48780487804878,3.70599317550659,4.06855154037476,9.48780487804878,3.97146892547607,3.25116968154907
1143,6.65680473372781,3.73891854286194,3.07442688941956,4.89349112426035,3.95770907402039,2.57100033760071
1144,0.714592274678112,3.7104663848877,2.70419383049011,1.12231759656652,3.9550609588623,2.74244737625122
1145,1.81164383561644,3.68558216094971,7.56826639175415,4.31164383561644,3.94684410095215,7.41808271408081
1146,6.30511811023622,3.75037884712219,2.84610819816589,3.92125984251969,3.97659516334534,2.60974359512329
1147,6.9375,3.7649621963501,3.23861718177795,4.625,3.96742844581604,3.12846922874451
1148,1.80263157894737,3.75362801551819,5.77042484283447,2.73684210526316,3.97219085693359,3.79860711097717
1149,5.25655021834061,3.75235557556152,2.63782095909119,5.08515283842795,3.97565317153931,2.23970651626587
1150,5.23809523809524,3.76073241233826,6.76348924636841,8.21428571428572,3.97524118423462,5.46146678924561
1151,5.02898550724638,3.79075598716736,3.68028807640076,9.55434782608696,4.00043439865112,4.57413196563721
1152,2.45588235294118,3.78812265396118,3.32027339935303,5.79705882352941,4.05799961090088,2.65826368331909
1153,6.97647058823529,3.82451343536377,2.96680569648743,5.17352941176471,4.11629915237427,2.7214047908783
1154,6.81012658227848,3.84658122062683,3.39086008071899,8.38924050632911,4.14056062698364,2.86395740509033
